ATR,AptarGroup,NASDAQ
35.89,36.24,36.24,35.89
36.27,36.20,36.31,36.04
36.28,36.75,36.85,36.17
36.68,36.75,36.88,36.58
36.78,36.78,36.89,36.50
36.84,36.81,36.92,36.62
36.65,36.83,37.01,36.56
36.83,36.89,36.99,36.52
36.77,36.78,36.92,36.65
36.63,36.24,36.78,36.07
36.11,36.89,36.89,36.11
36.63,36.42,36.63,36.13
36.50,36.07,36.53,35.93
36.17,36.06,36.56,35.99
36.22,36.06,36.37,36.01
36.02,36.00,36.59,35.86
35.87,36.21,36.30,35.74
36.27,35.92,36.42,35.81
35.92,35.48,36.38,35.48
35.41,35.56,35.68,35.32
35.55,36.08,36.18,35.43
36.02,36.00,36.31,35.83
35.74,35.10,35.89,35.08
35.13,35.03,35.16,34.46
35.03,35.15,35.41,34.87
35.41,35.42,35.60,35.02
35.29,35.08,35.45,35.00
36.15,37.90,37.92,36.00
37.88,38.04,38.49,37.76
38.40,37.77,38.41,37.45
37.75,37.46,38.04,37.24
37.52,37.90,38.01,37.50
37.77,38.12,38.18,37.70
38.34,38.22,38.46,38.04
38.25,38.06,38.32,37.97
38.21,38.45,38.52,38.21
38.12,38.36,38.37,37.56
38.50,38.53,38.65,38.04
38.56,39.01,39.01,38.34
38.95,39.31,39.37,38.92
39.38,39.64,39.82,39.38
39.59,39.64,39.74,39.49
39.93,40.35,40.37,39.80
40.30,40.46,40.54,40.18
40.20,40.18,40.44,40.04
40.26,40.29,40.37,40.12
40.23,40.36,40.42,40.00
40.53,40.40,40.83,40.17
40.39,40.00,40.50,39.72
40.00,40.34,40.38,39.97
40.60,40.50,40.85,40.36
40.50,40.23,40.72,40.19
40.36,39.81,40.52,39.69
39.51,39.69,39.94,39.51
39.80,39.95,40.00,39.41
39.89,39.15,39.89,39.14
39.57,38.84,39.57,38.79
38.97,39.12,39.23,38.82
39.17,39.57,39.57,39.03
39.39,39.74,39.84,39.31
39.73,39.35,39.82,39.33
38.86,39.50,39.69,38.63
39.53,39.66,39.67,39.22
39.46,39.74,39.80,39.32
39.48,39.90,39.99,39.46
39.91,40.19,40.31,39.64
40.35,40.92,40.93,40.01
41.00,41.01,41.15,40.81
40.92,41.15,41.25,40.80
41.37,41.78,42.07,41.11
41.61,42.35,42.47,41.57
43.07,42.85,44.36,42.29
42.64,42.92,43.18,42.25
42.89,42.78,43.01,42.57
42.68,42.90,43.07,42.68
42.56,43.10,43.17,42.41
43.25,43.24,43.35,43.05
43.27,43.10,43.29,42.50
42.89,42.70,43.24,42.60
42.98,42.95,43.08,42.71
43.25,43.72,44.18,43.08
43.87,43.04,44.17,43.03
43.29,43.67,44.12,43.15
43.20,43.52,43.62,42.95
43.51,42.50,43.57,42.42
42.14,41.36,42.71,39.65
41.23,40.34,41.48,40.26
41.61,42.16,42.19,41.54
41.72,42.19,42.52,41.71
42.36,42.68,42.84,42.14
42.45,42.27,42.78,42.00
42.10,40.81,42.10,40.62
40.87,41.23,41.35,40.20
41.60,40.32,41.81,40.27
40.32,40.26,40.60,39.79
39.48,38.90,39.80,38.74
38.65,38.71,38.97,37.94
38.56,38.57,39.22,38.42
37.61,38.23,38.31,37.34
38.38,38.57,38.98,38.14
39.45,39.95,39.96,39.29
39.76,39.86,40.13,39.41
39.72,39.06,40.14,39.04
39.16,39.85,39.86,38.87
39.72,39.79,39.99,39.40
38.95,38.46,39.68,38.31
38.56,38.02,38.74,37.97
37.84,38.00,38.00,37.41
38.00,37.62,38.27,37.45
38.11,38.60,38.63,38.11
38.29,39.13,39.16,38.26
39.36,38.99,39.74,38.88
39.03,40.16,40.22,38.95
40.11,40.65,40.73,40.00
40.90,40.49,40.90,40.18
40.45,40.52,40.69,40.31
40.86,40.10,41.12,39.89
40.11,39.00,40.25,38.96
39.08,38.59,39.22,38.31
38.37,38.38,38.93,38.22
38.47,38.74,38.82,38.00
38.90,39.24,39.50,38.48
38.80,38.21,38.80,37.96
38.27,37.82,38.50,37.72
37.81,37.62,37.88,36.91
37.80,38.03,38.24,37.49
38.35,37.34,38.47,37.17
37.51,38.51,38.54,37.48
38.94,39.04,39.11,38.56
39.11,39.23,39.38,39.06
39.23,39.09,39.32,38.81
39.39,40.75,40.89,39.39
40.70,40.68,40.83,40.21
40.68,40.66,40.76,39.95
40.50,39.83,40.50,39.74
39.83,39.72,40.06,39.42
39.30,40.26,40.33,39.18
40.59,40.24,40.98,39.95
40.90,42.04,42.10,40.86
42.04,42.70,42.84,41.79
42.91,43.47,43.47,42.72
43.60,43.32,43.82,42.93
43.39,43.24,43.54,43.12
43.24,42.99,43.62,42.60
42.32,43.07,43.28,42.32
43.78,43.53,43.80,43.17
43.47,43.44,43.85,43.39
43.69,43.60,43.79,43.37
43.37,43.65,43.85,43.35
43.28,43.77,44.05,43.10
44.00,43.77,44.00,43.55
43.35,43.18,43.59,42.92
42.47,41.87,42.49,41.62
41.21,41.98,42.18,41.10
41.77,41.85,42.22,41.77
41.69,41.87,42.01,41.58
42.24,42.64,43.10,42.16
42.64,42.55,43.01,42.39
42.45,41.90,42.50,41.51
41.66,42.06,42.07,41.40
42.36,41.67,42.36,41.54
41.15,40.99,41.34,40.86
40.66,41.07,41.17,40.31
41.29,40.95,41.49,40.85
41.21,42.01,42.10,40.70
41.89,40.99,41.99,40.99
40.95,41.65,41.75,40.75
42.32,42.76,42.77,41.93
42.83,43.21,43.25,42.69
43.60,43.85,43.94,43.49
43.78,43.58,43.87,43.35
43.70,43.87,44.09,43.68
44.47,43.98,44.55,43.87
44.20,44.01,44.24,43.89
44.38,44.68,44.96,44.38
44.78,44.96,45.19,44.57
44.97,45.72,45.75,44.56
45.65,45.65,46.02,45.45
45.78,45.27,45.95,45.21
45.35,45.29,45.66,45.10
45.29,44.69,45.39,44.55
44.69,44.45,45.00,44.44
44.28,44.14,44.78,43.97
44.74,44.83,44.95,44.42
44.76,44.60,44.95,44.42
44.77,45.43,45.58,44.21
45.34,45.56,45.91,45.28
45.89,45.67,46.55,45.54
46.09,45.28,46.09,44.83
45.29,45.39,45.65,44.90
45.81,46.44,46.75,45.81
46.26,46.41,46.47,46.13
46.68,46.16,46.72,45.97
46.28,46.44,46.57,46.12
46.39,46.74,47.04,46.39
46.77,46.69,46.85,46.16
47.00,47.07,47.24,46.64
47.11,46.99,47.31,46.72
47.31,46.76,47.45,46.58
46.94,46.83,47.14,46.57
46.37,46.38,46.59,46.01
46.67,47.39,47.61,46.60
45.10,45.00,45.48,44.40
44.98,45.05,45.35,44.74
45.20,45.25,45.71,45.13
44.93,45.14,45.41,44.80
44.84,45.17,45.20,44.70
45.52,45.23,45.68,44.90
45.23,44.88,45.44,44.83
45.03,44.81,45.23,44.59
45.14,44.91,45.46,44.83
44.92,45.06,45.17,44.54
45.68,46.22,46.27,45.32
46.30,46.42,46.50,46.25
46.08,46.34,46.53,46.05
46.52,46.29,46.64,46.14
46.30,46.84,46.92,46.03
46.40,46.62,46.74,46.26
46.31,46.01,46.55,45.98
46.21,46.03,46.55,45.72
45.62,45.29,45.94,45.07
45.31,45.35,45.50,45.22
45.81,45.47,46.04,45.36
45.36,45.58,45.68,45.26
45.30,46.02,46.17,44.95
45.61,45.45,45.61,45.13
45.79,46.47,46.62,45.60
46.15,46.35,46.67,46.13
46.03,45.89,46.11,45.19
45.67,45.67,46.00,45.47
46.45,46.84,47.13,46.42
46.98,47.51,47.63,46.92
47.55,48.22,48.42,47.46
48.16,47.52,48.37,47.44
47.76,47.28,47.92,47.18
47.41,46.70,47.50,46.40
47.02,46.75,47.02,46.36
46.82,47.06,47.07,46.65
47.17,46.89,47.20,46.82
47.00,46.76,47.02,46.59
46.66,46.66,47.10,46.63
46.64,47.41,47.44,46.64
47.48,47.11,47.51,46.90
47.16,47.35,47.45,46.99
47.47,47.43,47.57,47.29
47.69,47.96,48.45,47.50
47.96,47.87,48.12,47.77
47.71,48.07,48.31,47.64
48.17,48.17,48.35,47.74
48.23,48.00,48.36,47.98
47.90,47.84,48.14,47.84
47.72,47.57,47.82,47.41
47.78,48.12,48.30,47.72
48.28,47.82,48.30,47.31
47.79,47.90,48.01,47.48
48.00,47.47,48.00,47.26
47.70,47.38,47.70,47.08
47.22,47.44,47.57,46.75
47.66,47.82,47.93,47.40
48.25,48.20,48.26,47.94
48.06,48.18,48.24,47.88
48.18,48.47,48.52,47.98
48.35,49.07,49.14,47.76
48.97,48.67,49.13,48.38
48.47,48.24,48.57,47.70
48.48,48.01,48.49,47.76
48.13,48.64,48.73,47.94
48.29,48.55,48.57,47.98
48.62,48.84,48.94,48.47
48.76,48.69,48.86,48.48
48.68,47.81,48.79,47.69
47.79,48.06,48.26,47.53
48.23,48.69,48.88,48.21
48.53,48.60,48.78,48.47
48.48,48.40,48.64,48.05
48.42,48.60,48.69,48.30
48.81,49.44,49.48,48.81
49.48,49.82,49.86,49.40
49.64,49.49,49.90,49.25
49.39,49.63,49.99,49.12
49.38,49.48,50.06,48.53
49.73,49.24,49.90,48.94
48.96,49.20,49.40,48.90
49.28,49.19,49.68,48.96
49.08,49.51,49.55,48.95
49.53,49.49,49.62,49.13
48.84,48.49,49.33,48.34
48.28,47.80,48.55,47.09
47.91,47.45,48.03,46.95
47.66,48.04,48.05,47.39
48.21,48.17,48.56,48.02
48.21,47.46,48.39,47.23
47.46,47.43,47.75,47.25
47.77,48.62,48.78,47.77
48.53,47.94,48.87,47.48
48.09,47.77,48.32,47.35
47.81,49.73,49.76,47.81
49.56,49.29,49.66,48.94
48.73,48.03,48.90,47.94
47.76,48.14,48.36,47.63
47.74,48.40,48.56,47.74
47.22,47.68,48.07,46.50
47.58,47.32,47.99,47.06
47.90,47.41,47.97,47.33
47.86,48.00,48.32,47.71
48.46,48.99,49.09,48.31
48.97,48.91,49.17,48.61
48.89,48.98,49.20,48.49
49.15,49.13,49.27,48.81
49.29,48.97,49.75,48.94
49.15,48.90,49.34,48.83
48.80,48.82,49.04,48.52
48.95,49.62,49.80,48.78
49.58,50.13,50.19,49.58
50.41,50.78,51.11,50.01
50.94,51.14,51.21,50.70
51.00,51.56,51.78,50.85
51.79,51.54,51.87,51.12
51.46,50.94,51.59,50.89
51.16,50.36,51.29,50.13
50.54,50.05,50.54,49.79
49.69,49.38,49.92,49.21
49.83,49.62,49.94,49.18
49.27,49.67,49.86,49.15
49.69,50.23,50.29,49.51
49.74,49.59,49.81,48.85
49.67,50.17,50.17,49.30
51.00,51.00,51.23,50.67
51.00,51.37,51.51,50.78
51.25,51.12,51.30,50.77
51.37,51.84,52.09,51.27
51.85,52.13,52.16,51.36
52.08,52.36,52.57,51.97
52.40,52.45,52.75,52.22
52.54,52.83,53.02,52.41
52.63,52.38,52.77,52.02
52.34,51.89,52.64,51.55
51.50,51.35,52.04,51.08
51.73,51.26,51.96,51.03
51.34,52.25,52.45,51.25
52.27,52.40,53.08,52.16
52.19,51.61,52.55,51.33
51.36,52.47,52.53,51.20
52.58,52.31,53.00,52.21
52.05,52.92,53.29,51.86
52.60,52.00,52.61,51.67
51.82,53.23,53.97,51.72
53.18,52.99,53.80,52.70
52.87,52.52,53.30,52.20
51.70,51.56,51.80,51.17
51.58,51.47,51.83,51.30
51.25,52.06,52.17,51.25
51.81,51.98,52.05,51.59
52.13,52.23,52.44,52.08
52.62,53.40,53.45,52.30
53.32,52.12,53.48,52.06
51.96,51.97,52.36,51.68
51.11,51.15,51.71,51.11
51.16,50.55,51.37,50.53
50.91,50.87,51.20,50.57
50.62,50.60,50.99,50.56
50.77,51.09,51.32,50.51
50.77,50.40,51.10,50.27
51.78,51.45,51.78,50.91
51.86,51.60,51.94,51.54
51.01,50.59,51.60,50.53
50.49,50.67,50.85,50.06
51.19,50.48,51.30,50.28
50.45,50.65,50.83,50.25
50.99,51.30,51.42,50.72
51.16,51.09,51.42,50.96
50.30,50.82,50.89,49.93
50.84,50.61,50.98,50.26
50.62,51.04,51.42,50.23
50.98,51.62,51.80,50.98
51.87,52.04,52.25,51.49
52.24,52.34,52.45,51.92
52.58,53.24,53.34,52.19
53.26,53.16,53.34,52.83
53.14,54.17,54.25,52.88
54.62,54.34,54.66,54.22
53.62,54.21,54.29,53.60
53.50,53.47,53.90,53.27
53.25,53.39,53.74,53.22
53.57,53.25,54.10,53.21
53.51,52.52,53.57,52.32
52.88,52.66,52.88,52.18
52.40,51.63,52.40,51.49
51.90,53.54,53.79,51.85
51.04,53.07,53.45,47.61
53.20,53.16,53.68,52.80
53.03,53.04,53.24,52.74
52.56,52.73,53.24,52.45
52.80,52.56,53.16,52.32
52.26,51.47,52.39,51.33
51.51,51.24,51.75,51.14
50.52,51.05,51.17,49.79
51.53,51.00,51.66,50.58
50.56,49.92,51.26,49.86
49.88,49.60,49.89,48.40
48.95,47.44,49.12,47.42
48.04,47.74,48.69,46.83
46.32,45.26,46.98,45.21
46.30,47.49,47.58,44.96
46.32,45.41,47.04,45.38
45.17,47.35,47.88,45.03
47.66,47.80,48.25,47.10
47.48,48.42,48.42,47.48
47.92,47.98,48.63,47.78
48.14,47.77,48.36,47.53
46.47,46.12,46.59,45.79
45.52,46.66,47.09,45.52
47.80,46.69,47.82,46.50
46.88,47.83,47.85,46.52
47.71,48.27,48.37,47.39
48.64,47.36,48.70,47.11
46.99,48.50,48.56,46.65
49.42,50.11,50.22,49.23
49.81,50.31,50.57,49.52
50.64,50.48,51.12,50.08
50.65,49.20,50.97,49.17
48.37,47.99,48.95,47.71
46.67,47.56,47.80,46.62
48.24,48.51,48.56,47.98
48.26,48.85,48.98,47.98
48.07,48.08,48.51,47.58
47.67,47.88,48.25,47.09
48.05,48.50,48.59,47.69
48.87,49.23,49.76,48.11
49.60,49.65,49.71,48.87
49.71,49.23,50.08,49.06
48.26,48.52,48.69,47.97
48.77,48.13,49.14,48.09
48.00,46.68,48.01,46.47
45.72,45.80,46.29,45.30
45.74,46.15,46.32,45.38
46.41,47.01,47.06,45.38
47.96,47.62,48.47,47.41
47.93,45.65,47.96,45.60
46.38,46.47,46.53,45.54
45.65,44.67,46.33,44.66
44.35,42.79,45.12,42.69
42.44,44.65,44.76,41.98
44.87,45.66,45.76,44.31
45.64,46.48,46.76,45.50
46.75,45.95,46.88,45.63
46.83,47.24,47.49,46.77
47.01,47.68,47.78,46.89
47.90,48.71,49.06,47.86
48.42,48.24,48.44,47.51
48.58,48.64,48.72,48.07
48.30,47.50,48.62,47.30
47.65,48.57,48.81,46.98
48.62,47.51,48.69,47.43
47.44,47.95,47.97,46.92
48.41,48.49,48.84,47.99
48.75,49.58,49.78,48.40
49.44,48.35,49.62,48.30
49.07,48.95,49.24,47.93
48.59,48.95,49.85,48.04
49.07,49.13,49.69,48.93
48.69,47.97,49.24,47.94
47.41,46.20,47.49,45.98
46.88,47.24,47.32,46.43
47.72,48.86,49.00,47.17
48.48,48.76,48.90,47.79
48.56,48.51,48.77,47.66
48.69,48.41,48.71,47.84
47.43,47.18,47.68,46.75
47.73,47.50,48.31,47.10
47.94,48.60,48.90,47.76
48.34,48.18,48.60,47.83
48.04,48.59,48.82,47.81
48.69,48.38,49.16,48.28
48.19,47.71,48.59,47.47
47.98,48.03,48.23,47.62
47.31,47.45,47.67,46.87
47.38,47.83,48.07,47.38
47.41,46.92,47.66,46.52
46.81,46.51,47.33,46.48
47.56,48.16,48.22,47.56
48.20,48.62,49.00,47.99
49.71,50.79,50.83,49.70
50.53,50.58,51.75,50.50
51.00,50.95,51.65,50.52
51.00,51.25,51.90,50.95
50.98,50.71,51.25,50.61
50.31,50.66,50.82,49.71
50.35,49.86,50.70,49.68
50.00,50.73,51.02,49.82
50.12,49.94,50.36,49.44
50.37,49.66,50.80,49.27
49.44,48.99,49.71,48.80
49.52,49.93,49.93,49.06
50.26,51.18,51.34,50.09
51.47,50.01,51.66,49.85
50.90,52.19,52.35,50.90
52.10,52.22,52.29,51.14
52.30,52.19,52.56,51.68
52.19,52.58,52.73,52.14
52.33,52.52,52.87,52.13
52.58,51.89,52.58,51.63
51.79,52.49,52.80,51.79
52.32,52.17,52.77,52.17
53.18,52.28,53.44,52.06
52.13,52.39,52.55,51.81
52.39,51.95,52.39,51.44
52.02,51.85,52.30,51.49
52.10,51.79,52.25,51.67
52.06,51.95,52.41,51.83
51.85,51.80,52.04,51.64
52.00,51.47,52.00,51.37
51.16,51.48,51.75,51.12
51.84,51.68,52.12,51.49
51.61,52.09,52.23,51.56
52.13,52.37,52.37,51.78
52.04,51.55,52.16,51.31
51.53,51.58,51.80,51.46
51.05,51.44,51.72,51.01
51.32,51.76,51.83,51.02
52.06,52.15,52.45,51.93
52.05,52.28,52.55,51.93
51.75,52.13,52.37,51.26
52.44,52.42,52.58,51.94
52.75,53.54,53.62,52.67
53.68,52.80,53.71,52.49
53.45,53.50,53.80,53.29
53.35,53.50,53.68,53.25
53.47,53.44,53.82,52.99
53.60,53.19,53.60,53.10
53.39,53.76,53.76,53.01
52.75,53.04,53.27,51.15
53.28,52.42,53.57,51.93
52.32,52.33,52.42,51.96
52.37,52.41,52.83,52.01
52.41,52.75,53.33,52.19
52.92,52.82,53.14,52.75
53.03,52.50,53.07,52.30
52.31,52.45,52.77,51.65
52.50,53.16,53.26,52.09
53.06,53.23,53.60,52.76
53.04,53.23,53.47,52.20
53.20,52.75,53.44,52.50
52.83,52.78,53.14,52.52
53.01,52.94,53.10,52.54
52.83,53.20,53.24,52.83
53.02,53.35,53.47,52.81
52.75,52.16,52.75,51.96
52.24,52.19,52.70,51.96
52.39,53.27,53.48,52.39
53.40,53.54,53.90,53.29
53.51,53.60,53.72,53.27
53.92,54.41,54.42,53.66
54.43,54.46,54.62,54.30
54.39,54.89,54.92,54.23
54.30,54.74,54.87,53.99
54.55,54.59,54.96,54.39
54.37,54.40,54.69,54.32
54.16,54.28,54.52,53.86
53.96,54.00,54.04,53.23
53.94,54.29,54.33,53.87
54.53,54.92,54.92,54.46
54.92,54.79,54.93,54.58
54.70,54.94,55.00,54.47
54.69,54.91,55.00,54.49
55.00,54.77,55.00,54.71
54.76,55.00,55.49,54.53
55.04,55.26,55.36,54.62
54.92,54.79,54.94,54.00
54.64,54.34,54.88,54.16
53.71,54.15,54.36,53.59
53.90,53.34,54.26,53.26
54.24,53.90,54.24,52.03
53.91,54.50,54.64,53.91
54.27,54.08,54.42,53.95
54.13,54.27,54.47,53.73
54.65,54.50,54.76,54.36
54.33,54.48,54.55,54.15
54.55,54.54,55.05,54.18
54.67,54.89,55.00,54.60
54.39,54.26,54.39,53.82
54.11,54.03,54.26,53.80
54.36,55.02,55.11,54.04
54.33,54.50,54.91,53.55
54.43,54.79,55.11,54.39
54.76,54.51,54.99,54.30
54.40,54.67,55.26,54.20
54.35,54.53,54.85,54.08
54.63,54.83,55.39,54.48
54.62,53.72,54.71,53.61
53.51,53.59,53.81,53.45
53.23,53.79,53.87,52.69
53.49,53.72,53.88,52.95
54.11,53.57,54.11,53.34
53.35,53.39,53.88,53.28
52.83,52.33,52.85,52.31
52.49,51.74,52.61,51.61
52.00,51.28,52.15,51.24
51.39,50.14,51.54,50.14
50.35,49.70,50.56,49.63
49.82,50.56,50.70,49.74
50.67,50.59,50.96,50.33
50.12,51.05,51.22,49.90
51.18,51.06,51.41,50.46
51.10,50.61,51.27,50.54
51.03,50.71,51.62,50.63
50.46,49.87,50.46,49.84
50.03,50.67,51.09,49.94
49.56,50.26,50.44,49.36
50.25,50.22,50.36,49.69
49.96,50.40,50.49,49.86
50.95,51.58,51.65,50.76
52.00,51.94,52.45,51.88
51.95,52.40,52.53,51.48
52.75,51.77,52.93,51.71
51.97,52.37,52.54,51.87
52.19,51.97,52.66,51.85
52.14,52.38,52.57,51.91
52.56,52.27,52.74,52.24
52.18,52.62,52.85,51.89
52.64,52.43,53.26,52.42
52.18,52.24,52.58,51.98
52.20,51.13,52.48,51.00
51.40,51.72,51.80,51.16
51.19,50.71,51.20,50.50
50.71,50.58,50.96,50.32
50.79,50.73,51.24,50.65
50.53,50.53,50.71,50.06
51.34,51.05,51.70,51.02
51.07,51.78,51.94,50.92
51.70,52.53,52.62,51.70
52.46,52.50,52.74,52.35
52.15,51.46,52.40,51.07
49.49,49.72,50.21,47.56
49.43,49.47,49.57,48.82
49.38,49.23,49.45,48.90
49.09,49.05,49.22,48.67
49.25,49.84,49.89,49.01
49.81,49.64,49.92,49.35
49.65,49.82,49.88,49.15
49.48,50.31,50.53,49.42
50.36,50.71,50.81,50.09
50.39,50.11,50.55,50.07
49.47,49.78,49.94,48.92
49.37,48.75,49.37,48.35
48.83,49.35,49.37,48.56
50.01,49.81,50.14,49.44
50.12,50.65,51.96,49.47
50.72,50.48,51.22,50.35
50.34,50.01,50.55,49.86
50.12,49.22,50.16,49.00
48.67,48.57,48.99,48.08
49.30,50.06,50.15,49.30
50.06,49.98,50.46,49.87
50.00,50.05,50.40,49.82
49.97,49.92,50.26,49.89
49.92,49.83,50.02,49.51
49.83,49.89,50.02,49.65
49.75,49.98,49.98,49.30
50.18,49.97,50.23,49.87
50.01,50.36,50.37,49.87
50.36,50.66,50.79,50.03
50.57,50.62,50.87,50.25
50.68,50.57,50.76,50.14
50.66,50.37,50.72,50.13
50.39,50.84,50.87,50.00
50.86,50.52,50.86,50.25
50.35,50.82,50.91,50.35
51.00,50.51,51.00,50.40
50.43,50.98,51.04,50.20
50.94,50.92,51.14,50.79
50.64,50.47,50.76,50.40
50.87,50.65,51.02,50.35
50.59,51.00,51.04,50.07
51.10,50.61,51.23,50.33
50.92,50.80,51.80,50.72
50.88,51.49,51.49,50.62
50.70,51.11,51.43,50.33
51.11,51.19,51.26,50.71
51.05,51.28,51.42,50.99
51.35,52.14,52.38,51.35
52.18,52.46,52.59,52.18
52.43,52.40,52.56,52.24
52.24,52.10,52.41,51.85
52.25,52.41,52.55,51.95
52.24,52.68,52.76,52.10
53.11,52.67,53.19,52.57
52.17,52.65,52.76,52.17
52.73,51.99,53.03,51.90
52.09,51.81,52.09,51.36
51.86,51.62,51.93,51.28
51.32,51.71,51.82,51.09
51.71,51.74,51.92,51.04
51.91,51.87,51.99,51.44
51.95,52.03,52.37,51.77
52.22,52.31,52.40,51.95
52.60,52.57,53.00,52.48
52.45,52.41,52.72,52.21
52.31,51.68,52.38,51.62
51.70,51.19,51.72,51.11
51.49,51.27,51.70,51.19
51.27,51.23,51.58,51.18
51.21,51.45,51.52,50.93
51.48,52.11,52.16,51.47
52.22,53.00,53.06,52.05
52.86,52.74,52.94,52.67
52.66,52.34,52.78,51.95
52.30,52.58,52.65,52.19
52.15,51.71,52.15,51.20
51.94,51.42,51.94,51.26
51.69,51.30,51.69,51.05
51.49,51.65,51.79,51.29
50.80,51.28,51.62,49.97
51.39,53.13,53.36,51.25
52.40,49.49,53.02,49.17
49.70,49.67,50.49,49.16
49.55,50.16,50.75,49.53
49.74,48.92,49.74,48.86
48.81,48.27,49.02,48.27
48.09,48.02,48.48,48.00
48.00,47.89,48.35,47.86
47.61,47.15,47.85,46.99
47.12,46.04,47.38,46.03
46.00,45.80,46.29,45.53
45.80,46.19,46.22,45.19
46.59,46.94,46.99,46.40
46.79,46.97,46.97,46.50
47.05,46.95,47.54,46.76
47.16,47.62,47.63,47.16
47.41,47.79,47.93,47.41
47.68,47.31,48.12,47.19
46.74,47.58,47.78,46.71
47.90,47.77,48.09,47.42
47.80,47.67,48.03,47.38
48.02,46.95,48.07,46.77
46.89,47.08,47.32,46.61
47.18,47.25,47.36,46.89
47.20,47.68,47.68,46.91
47.77,47.70,47.90,47.58
47.62,47.78,47.90,47.38
48.01,47.74,48.10,47.59
47.95,47.57,48.09,47.55
47.56,47.20,47.81,46.84
47.15,46.92,47.44,46.85
46.99,47.38,47.46,46.98
47.40,47.56,47.60,47.09
47.56,48.07,48.55,47.56
48.05,48.19,48.35,48.00
47.69,47.76,48.35,47.33
47.65,47.99,48.10,47.27
47.99,47.54,48.05,47.41
47.42,47.77,47.95,47.19
47.44,47.34,47.88,47.32
47.19,47.72,48.04,47.04
48.95,48.76,48.99,48.14
48.76,48.95,49.33,48.64
48.95,49.62,49.63,48.94
49.37,49.20,49.43,49.10
51.11,51.72,51.77,50.18
51.84,51.18,51.87,50.94
51.45,50.88,51.45,50.82
50.59,51.04,51.14,50.59
50.88,51.23,51.39,50.82
50.75,51.55,51.58,50.75
51.55,51.57,51.64,51.36
51.84,52.04,52.23,51.74
52.11,52.33,52.33,51.90
52.22,52.02,52.26,51.76
52.14,51.81,52.37,51.73
51.86,52.10,52.18,51.79
52.39,52.03,52.39,51.92
51.95,51.04,51.95,50.79
51.23,51.92,51.92,50.95
51.89,51.86,52.15,51.67
51.59,51.53,51.93,51.39
52.01,52.23,52.25,51.42
51.91,52.21,52.29,51.80
52.36,52.55,52.62,52.22
52.33,52.91,53.13,52.14
52.99,52.87,52.99,52.25
53.05,52.51,53.43,52.38
52.47,52.43,52.58,51.88
52.56,52.71,52.72,52.34
52.91,53.17,53.17,52.54
53.02,53.07,53.28,52.78
53.10,53.11,53.31,52.96
53.36,53.75,53.85,53.17
53.70,52.27,53.78,52.20
52.32,52.23,52.46,51.95
52.48,52.82,52.85,52.33
52.94,52.10,53.00,52.09
52.26,52.46,52.57,52.17
52.50,53.40,53.59,52.50
53.32,53.94,53.99,53.32
53.66,53.47,53.80,53.08
53.28,53.40,53.56,52.97
53.40,53.80,53.94,53.40
53.99,54.38,54.51,53.82
54.47,54.53,54.71,54.30
54.79,55.25,55.25,54.61
55.17,55.35,55.37,55.00
55.46,55.36,55.62,55.09
55.37,55.33,55.61,54.95
55.56,55.48,55.70,55.00
55.39,55.70,55.74,55.24
55.34,55.56,55.88,55.27
55.77,55.81,55.93,55.16
56.00,56.65,56.88,55.86
56.36,56.26,56.61,56.05
56.27,56.24,56.40,55.90
56.39,56.00,56.75,55.63
56.70,56.65,56.80,56.27
56.35,56.84,56.90,56.19
56.83,57.35,57.47,56.72
57.42,56.97,57.42,56.72
57.27,57.23,57.27,56.75
57.12,56.64,57.15,56.40
56.70,56.67,56.81,56.20
56.28,56.09,56.30,55.75
56.25,56.39,56.43,55.89
56.53,56.44,56.66,56.09
56.59,57.25,57.25,56.58
57.17,57.48,57.69,57.13
57.17,56.90,57.43,56.77
56.62,55.39,56.68,55.28
55.63,55.86,55.98,55.42
55.52,55.01,55.52,54.47
55.10,54.57,55.17,54.45
54.71,55.08,55.26,54.40
55.28,55.46,55.73,54.75
55.74,56.16,56.19,55.40
56.20,56.50,56.64,55.45
56.61,56.17,56.84,56.13
56.17,55.39,56.17,54.96
55.74,55.35,55.76,55.06
55.19,56.10,56.12,55.02
56.01,55.47,56.01,55.31
55.51,55.60,56.04,55.44
56.07,55.99,56.47,55.85
56.05,56.07,56.31,55.80
56.05,56.14,56.26,55.76
56.14,56.46,56.46,55.96
56.42,55.96,56.53,55.91
56.08,56.49,56.99,56.08
56.55,55.98,56.72,55.96
55.86,56.30,56.33,55.74
56.09,56.67,56.68,56.09
56.60,56.57,57.02,56.35
56.81,57.07,57.16,56.71
56.93,57.06,57.29,56.93
56.95,56.99,57.17,56.63
56.99,56.61,57.52,56.34
56.20,56.69,56.72,55.90
56.40,56.22,56.51,55.87
56.73,56.47,57.14,56.23
56.16,56.27,56.61,56.03
56.30,57.24,57.35,56.30
57.00,56.72,57.30,56.72
56.71,56.85,57.04,56.30
56.84,56.58,57.31,56.34
56.42,55.78,56.52,55.67
55.83,56.28,56.28,55.68
56.47,57.00,57.15,56.45
57.19,57.19,57.76,56.83
56.56,56.85,57.18,56.34
57.02,56.05,57.29,55.67
55.92,57.29,57.35,55.92
57.26,57.04,57.34,56.81
57.32,57.14,57.43,56.94
57.20,57.34,57.58,57.20
57.19,56.60,57.47,56.57
56.04,55.32,56.34,55.27
55.47,55.03,55.52,54.59
54.47,54.83,55.11,54.13
55.28,54.86,55.37,54.35
55.20,54.96,55.43,54.63
55.21,55.41,55.73,55.00
55.36,55.21,55.62,55.04
55.49,55.95,56.44,55.36
55.83,55.80,56.38,55.45
55.66,55.88,55.91,55.36
56.28,56.62,56.63,55.64
56.79,56.90,57.03,56.60
57.24,57.80,57.89,57.02
57.60,58.09,58.26,57.53
58.78,59.32,59.36,58.67
59.36,59.65,59.66,59.19
59.60,59.76,59.79,59.24
59.80,59.43,59.87,59.27
59.81,59.38,59.81,59.13
59.50,59.83,59.89,59.14
59.85,59.58,59.93,59.41
59.71,59.64,60.11,59.53
59.88,59.57,59.90,59.32
59.82,58.70,59.82,58.63
58.64,58.34,59.99,58.34
58.17,57.94,58.42,57.55
57.69,58.49,58.64,57.69
58.81,58.39,58.89,58.23
58.70,58.39,58.75,58.25
59.12,59.91,60.29,59.12
60.07,60.48,60.74,59.75
60.43,59.97,60.59,59.81
60.12,59.47,60.21,59.27
59.47,59.50,59.53,59.00
59.84,60.34,60.61,58.96
60.30,60.12,60.59,59.91
59.88,60.22,60.38,59.88
60.39,60.35,60.49,59.82
60.29,60.31,60.58,60.11
59.79,59.20,59.82,59.17
59.25,59.29,59.40,59.03
59.24,59.24,59.44,59.12
59.34,59.34,59.59,59.21
59.04,58.90,59.36,58.77
59.11,59.59,60.04,59.11
59.79,59.84,59.88,59.43
59.90,60.07,60.42,59.72
59.34,58.75,59.77,58.68
58.56,58.81,58.98,58.56
58.69,59.21,59.44,58.69
59.34,58.81,60.08,58.43
59.44,58.37,59.78,57.40
58.34,58.62,58.90,58.23
58.56,58.49,58.89,58.47
58.62,58.51,58.91,57.76
58.70,59.15,59.48,58.30
59.47,59.49,59.89,59.06
59.29,59.51,59.73,59.29
59.53,59.15,59.94,59.11
59.36,59.01,59.48,58.93
59.71,60.32,60.57,59.54
60.40,59.51,60.50,59.36
59.51,60.22,60.34,59.17
60.35,60.11,60.45,59.81
60.50,60.24,60.51,60.10
60.19,60.40,60.66,59.95
60.37,60.41,60.75,60.08
60.33,60.26,60.51,59.90
60.49,60.57,60.73,60.11
60.30,59.65,60.46,59.63
59.25,60.13,60.17,59.15
59.98,61.09,61.66,59.89
60.20,60.28,60.37,59.44
59.92,59.73,59.95,59.23
59.66,60.13,60.45,59.57
59.77,60.26,60.32,59.19
59.96,60.10,60.64,59.96
60.18,59.77,60.29,59.46
60.48,60.93,60.95,60.37
60.67,61.45,61.51,60.42
61.08,61.92,61.94,60.79
61.67,61.24,61.71,61.05
61.43,61.65,62.13,61.42
61.41,62.75,62.77,61.35
62.76,63.19,63.29,62.57
63.18,63.55,63.57,63.07
63.81,64.24,64.36,63.54
63.93,63.35,64.18,63.01
63.43,63.56,63.92,63.12
63.59,64.28,64.34,63.59
64.12,64.17,64.50,63.93
64.17,64.01,64.53,63.48
64.01,63.56,64.35,63.43
63.10,64.16,64.48,62.21
64.42,63.89,64.70,63.52
63.94,64.08,64.14,63.49
64.00,63.78,64.05,63.07
64.08,64.37,64.66,63.61
64.58,63.41,64.77,63.36
63.29,64.25,64.44,63.29
64.19,64.72,64.78,64.14
64.75,64.40,64.75,63.99
63.94,65.09,65.10,63.94
65.16,64.92,65.23,64.66
64.88,64.94,64.98,64.70
65.09,64.78,65.10,64.68
64.71,64.39,64.90,64.31
64.57,63.89,64.80,63.75
64.09,64.10,64.44,63.90
64.18,64.20,64.58,63.80
64.42,64.24,64.61,64.10
64.22,64.37,64.59,63.72
64.63,64.95,65.04,64.34
64.95,64.92,65.25,64.88
64.96,64.97,65.73,64.39
64.75,64.21,64.93,63.96
63.85,63.81,64.13,63.10
63.65,64.08,64.11,63.41
64.41,64.69,64.81,63.94
64.60,64.59,64.70,64.18
64.40,64.28,64.57,64.19
64.40,63.21,64.52,63.14
63.19,63.40,63.66,63.19
63.47,63.70,63.86,63.43
64.09,64.37,64.56,63.87
64.28,64.47,64.68,64.14
64.73,65.08,65.12,63.82
64.88,64.78,65.40,64.50
64.83,65.36,65.46,64.78
65.70,65.85,65.86,65.24
65.93,66.39,66.40,65.63
66.61,66.79,66.87,66.13
66.95,66.72,67.10,66.35
66.76,67.53,67.57,66.66
67.51,67.81,67.86,67.35
67.76,67.13,68.01,66.97
66.95,66.85,67.30,66.49
67.13,66.50,67.20,66.25
66.84,66.81,66.88,66.27
67.11,68.21,68.29,66.89
68.36,67.75,68.68,67.48
67.74,68.05,68.16,67.60
68.19,67.13,68.66,67.00
67.42,68.25,68.62,67.30
68.60,68.00,68.78,67.63
67.90,68.00,68.27,67.79
68.03,67.24,68.20,67.20
67.57,67.17,67.73,66.85
67.43,66.99,67.43,66.86
66.93,66.30,66.98,65.91
66.05,64.48,66.05,64.44
64.16,63.40,64.62,63.40
63.64,63.67,63.78,63.30
63.15,63.36,63.96,62.84
64.03,64.21,64.26,63.52
63.23,63.80,64.23,63.11
63.86,61.42,64.00,61.30
61.90,62.13,62.32,61.18
61.98,62.30,62.56,61.36
62.39,62.50,62.63,62.10
63.80,63.49,63.91,62.69
63.20,63.41,63.72,62.87
63.39,63.83,63.89,63.14
63.80,63.94,64.18,63.70
63.54,64.42,64.54,63.54
64.21,64.77,64.94,64.21
64.86,64.98,65.15,64.31
64.77,64.52,65.48,64.46
64.46,64.85,65.45,64.26
64.93,64.64,65.04,64.48
64.70,64.37,65.23,64.34
64.29,64.60,64.97,64.25
64.82,64.94,65.64,64.82
64.88,65.51,65.72,64.85
65.51,66.17,66.74,65.51
65.53,65.33,65.81,65.10
66.25,65.75,66.37,65.48
65.78,65.93,66.04,65.43
66.04,65.75,66.14,65.67
66.00,65.73,66.27,65.49
65.71,65.56,65.86,65.26
65.75,65.06,65.83,64.90
64.78,65.04,65.14,64.51
65.27,64.15,65.42,64.10
64.15,64.51,64.97,63.99
64.72,64.96,65.23,64.71
65.01,65.47,65.51,64.94
65.27,64.86,65.76,64.47
64.81,64.66,64.97,64.52
64.89,64.75,65.52,64.57
64.54,64.19,65.22,63.47
64.35,64.16,64.67,63.88
64.54,63.57,64.54,63.51
63.40,63.69,63.73,63.11
63.81,64.27,64.61,63.81
64.70,66.10,66.25,64.46
66.25,67.05,67.12,65.86
66.96,67.14,67.41,66.60
67.26,66.68,67.51,66.29
67.10,66.04,67.19,65.82
65.87,65.42,65.87,65.22
65.49,65.85,65.90,65.03
65.86,66.24,66.61,65.83
66.28,65.71,66.39,65.46
67.35,64.72,67.35,64.54
65.13,65.19,65.74,64.65
65.51,66.03,66.24,64.59
66.29,66.40,66.70,66.19
66.45,66.57,66.89,66.21
66.52,67.08,67.11,66.23
67.22,67.62,67.74,66.92
67.44,67.20,67.78,67.13
67.31,67.36,67.40,66.39
67.20,67.14,67.56,66.51
66.91,66.90,67.48,66.32
66.93,67.12,67.35,66.74
66.80,67.42,67.47,66.58
67.65,67.19,67.72,67.01
67.34,66.68,67.49,66.50
66.14,66.74,66.93,66.05
66.48,66.37,66.63,66.14
66.24,66.48,66.49,65.64
66.51,66.70,67.26,66.33
66.47,66.59,66.88,65.98
66.96,67.50,67.59,66.59
67.74,66.99,67.84,66.77
66.87,66.78,67.23,66.52
66.53,65.98,66.54,65.67
66.01,66.14,66.22,65.52
66.15,66.63,67.18,65.95
66.34,65.81,66.67,65.34
66.05,66.02,66.23,65.66
66.07,65.92,66.29,65.79
65.94,65.99,66.30,65.79
66.14,65.95,66.14,65.80
66.02,65.96,66.16,65.44
66.16,66.37,66.39,65.70
66.42,66.59,66.66,66.20
66.72,66.50,66.78,66.09
66.30,66.22,66.51,66.05
66.08,66.17,66.39,65.97
66.24,66.53,66.64,65.80
66.67,67.11,67.30,66.49
67.03,67.23,67.58,67.03
67.21,67.13,67.41,66.68
66.79,66.60,66.94,66.44
66.43,66.10,66.86,65.72
64.95,66.41,66.67,64.95
66.31,65.64,66.47,65.56
65.47,66.33,66.90,65.41
66.33,66.07,66.40,65.75
66.06,66.68,66.75,66.06
66.75,66.63,67.10,66.44
66.81,66.39,66.87,66.33
66.02,66.00,66.74,65.89
66.05,66.39,66.71,66.05
66.36,66.31,66.75,65.79
66.12,67.01,67.01,66.12
66.89,67.01,67.37,66.55
67.26,67.51,68.00,67.14
67.32,66.74,67.56,66.57
67.04,66.97,67.10,66.67
66.75,66.42,66.92,65.98
66.26,66.24,66.41,65.84
66.29,66.32,66.58,65.82
65.46,66.26,66.40,65.46
66.16,66.35,66.46,65.92
66.75,66.54,67.02,66.29
66.47,66.82,67.03,66.20
66.95,66.35,67.07,65.92
65.88,65.03,66.11,64.95
65.30,66.05,66.17,64.66
65.68,65.40,65.68,64.99
64.24,63.73,64.65,63.43
63.79,63.67,64.05,63.24
63.55,63.79,64.21,63.50
63.44,63.50,64.03,63.24
63.11,62.91,63.18,62.66
62.87,62.63,63.24,62.56
62.73,62.11,63.03,62.02
61.83,61.10,61.83,60.89
61.07,61.13,61.45,60.57
61.30,61.38,61.50,60.67
61.00,60.97,61.52,60.66
60.79,61.52,62.07,60.52
61.87,61.58,62.05,61.30
61.77,62.36,62.42,61.24
62.68,62.16,63.05,62.10
62.03,62.35,62.48,61.77
62.64,63.11,63.15,62.23
63.22,63.14,63.70,63.03
63.31,63.30,63.43,62.88
63.60,63.68,63.72,63.34
63.80,64.13,64.14,63.66
63.99,63.75,64.11,63.65
64.12,63.93,64.39,63.77
64.04,63.62,64.23,63.59
64.01,63.72,64.14,63.38
63.75,63.96,64.23,63.67
64.06,64.00,64.20,63.66
63.93,64.02,64.22,63.64
64.02,64.15,64.21,63.62
64.38,64.54,64.88,64.15
64.66,64.17,64.68,64.02
64.50,64.74,64.95,63.92
64.86,65.20,65.20,64.51
65.01,64.71,65.37,64.37
64.50,63.88,64.50,63.52
63.87,63.54,63.87,63.31
63.44,63.79,63.88,63.24
63.54,62.70,63.74,62.48
62.88,62.76,62.88,62.28
62.74,62.59,63.04,62.41
62.53,61.49,62.64,61.45
61.95,61.60,62.19,61.54
61.61,61.16,62.00,61.14
61.10,61.20,61.35,60.72
61.11,60.94,61.48,60.93
60.75,61.00,61.23,60.60
60.73,60.84,61.01,60.57
60.88,61.38,61.50,60.65
60.86,61.75,61.84,60.70
61.58,60.70,61.58,60.59
60.40,59.26,60.74,59.11
59.36,59.33,59.67,58.91
59.60,60.11,60.21,59.50
60.25,60.23,60.65,59.90
60.08,58.95,60.08,58.92
59.02,59.92,60.02,58.33
59.89,58.56,60.12,58.22
58.72,57.50,59.14,57.44
57.41,56.18,58.12,56.03
56.56,56.39,56.76,56.01
55.60,56.64,57.09,55.59
55.74,57.65,57.78,55.66
58.30,58.70,59.07,58.05
58.71,60.04,60.08,58.46
60.28,61.25,61.30,60.28
61.42,60.59,61.85,60.55
61.18,61.78,62.37,60.79
61.72,61.92,62.08,61.48
61.37,60.37,61.37,60.00
60.79,61.25,61.50,60.51
61.34,61.03,61.56,60.50
60.70,61.71,61.85,60.38
58.36,62.24,62.69,58.36
61.73,61.73,62.29,61.42
61.51,62.31,62.36,61.34
62.80,63.64,63.69,62.29
63.59,63.80,64.03,63.16
63.97,64.77,64.85,63.86
64.84,65.55,65.57,64.78
65.50,65.26,65.87,65.05
64.95,65.17,65.23,64.76
65.40,64.95,65.75,64.72
64.91,64.83,65.25,64.60
64.96,65.48,65.61,64.81
65.55,64.99,65.81,64.87
65.00,64.83,65.00,64.49
64.36,64.75,65.05,64.36
65.30,65.10,65.41,64.71
65.21,65.34,65.38,65.03
65.45,65.27,65.45,65.02
65.31,65.29,65.43,64.91
65.40,65.25,65.60,64.92
64.82,65.10,65.40,64.53
65.20,65.35,65.89,65.14
65.54,66.43,66.49,65.45
66.45,66.57,66.90,66.05
66.33,66.26,66.71,66.10
66.19,65.88,66.58,65.66
65.39,66.26,66.29,65.20
66.24,65.39,66.24,65.22
65.83,65.68,66.20,65.24
65.30,64.64,65.49,64.59
64.86,63.86,65.03,63.82
63.76,63.82,64.42,63.40
64.28,65.26,65.32,63.58
66.19,66.61,66.78,65.48
66.65,67.13,67.27,66.62
67.41,67.09,67.50,66.88
67.17,67.44,67.62,66.83
67.04,67.56,67.84,67.04
67.87,67.86,68.17,67.30
67.59,68.38,68.62,67.59
68.33,68.10,68.67,67.91
68.09,66.84,68.37,66.77
67.06,66.65,67.68,65.91
66.20,64.60,66.63,64.00
64.85,63.91,65.00,63.48
64.51,64.28,64.62,63.87
64.77,66.11,66.14,64.77
66.43,65.47,66.70,65.42
65.49,65.37,66.14,64.95
65.79,65.17,66.53,64.26
64.28,64.60,64.98,63.90
64.66,63.78,65.02,63.45
63.73,64.47,64.68,63.37
64.30,64.21,64.97,63.67
63.82,64.34,64.71,63.65
64.62,64.71,65.07,63.83
64.74,63.76,64.91,63.75
63.58,63.77,64.01,63.18
63.06,62.89,63.55,62.60
63.17,62.09,63.58,61.89
62.39,63.00,63.23,61.39
62.58,63.11,63.35,62.18
63.23,63.54,63.85,62.71
63.66,63.47,64.42,63.31
63.26,63.22,63.97,62.95
63.74,63.81,64.34,63.40
64.09,64.33,66.60,63.76
64.04,63.65,64.43,63.18
64.04,63.73,64.31,63.41
63.50,63.68,64.05,63.38
63.95,64.07,64.54,63.67
64.11,64.56,64.74,63.89
64.13,65.25,65.69,64.13
64.99,65.83,65.83,64.99
65.41,65.84,66.27,65.14
65.94,66.17,66.26,65.14
65.92,66.27,66.40,65.56
66.14,66.30,66.40,65.68
66.18,65.85,66.38,65.45
65.85,66.26,66.35,65.74
66.17,65.87,66.38,65.56
66.04,66.50,66.56,65.53
66.08,65.89,66.45,65.60
65.92,65.62,66.03,64.87
65.56,65.03,65.92,64.63
64.80,64.27,65.01,63.92
64.13,64.18,64.70,63.91
63.63,63.75,64.02,63.40
63.75,63.36,63.82,62.71
63.71,63.56,64.16,63.23
63.43,63.10,63.73,62.86
63.43,63.79,64.00,63.32
63.65,63.61,63.93,62.57
63.49,63.95,64.54,63.23
63.73,63.64,64.13,63.19
63.73,63.23,63.94,63.21
63.35,63.39,63.90,63.04
63.26,63.50,63.79,63.14
63.43,62.98,63.91,62.87
62.82,62.98,63.17,62.71
63.03,63.18,63.32,62.76
63.41,63.70,63.98,63.26
63.26,63.52,63.80,63.21
63.58,63.65,63.83,62.82
63.51,63.15,63.84,62.96
62.92,63.38,63.43,62.76
63.30,63.11,63.50,62.99
63.12,63.42,63.50,62.85
63.29,63.33,63.46,62.86
63.44,63.49,63.57,63.18
63.05,63.43,63.67,63.01
63.47,63.30,63.73,63.14
63.58,63.00,63.60,62.90
63.32,63.01,63.52,62.83
62.72,62.84,62.99,61.98
63.07,62.81,63.26,62.73
63.12,62.72,63.28,62.50
62.68,62.88,63.47,62.44
62.70,62.94,63.10,62.70
63.15,63.29,63.44,62.64
63.38,62.79,63.59,62.55
62.72,62.78,63.05,62.45
62.64,62.55,62.74,62.12
62.15,62.07,62.79,62.00
64.25,64.05,64.93,63.01
64.34,63.96,64.98,63.90
63.74,63.00,64.08,62.87
63.10,63.10,63.34,62.60
63.02,63.00,63.13,62.72
63.70,63.16,63.70,62.94
62.97,63.06,63.21,62.90
62.88,63.51,63.71,62.38
63.97,64.33,64.50,63.97
64.63,65.21,65.42,64.63
65.21,65.20,65.39,64.88
65.12,65.66,65.84,64.96
65.73,66.09,66.31,65.63
66.09,65.46,66.15,65.28
65.24,64.92,65.26,64.55
64.75,64.50,65.01,64.33
64.48,63.97,64.64,63.68
64.02,64.48,64.55,63.84
64.40,64.49,64.70,64.08
64.64,63.77,64.85,63.65
64.02,63.90,64.27,63.31
63.83,63.95,64.63,63.47
64.25,64.14,64.56,63.95
63.75,63.92,64.24,63.53
63.77,64.28,64.32,63.45
64.24,63.75,64.53,63.56
63.75,64.15,64.33,63.58
64.30,64.24,64.56,64.05
64.23,64.78,64.82,64.21
64.50,64.58,64.75,64.14
64.06,64.27,64.28,63.62
64.31,64.90,65.78,64.00
64.88,64.81,65.00,64.13
64.95,65.27,65.34,64.49
65.30,65.29,65.83,65.04
65.64,65.50,65.64,65.14
65.57,65.18,65.63,64.81
65.12,64.45,65.31,64.37
64.68,64.28,65.09,64.03
64.40,64.48,64.63,64.06
64.15,63.74,64.56,63.68
64.07,63.77,64.30,63.62
64.14,63.85,64.38,63.74
64.12,63.79,64.26,63.56
63.45,63.84,63.99,63.17
63.74,64.30,64.36,63.44
63.89,63.44,64.39,63.25
63.89,63.41,64.04,63.25
63.96,63.68,64.45,63.51
63.78,64.26,64.35,63.78
64.02,63.94,64.29,63.79
63.88,63.94,64.28,63.63
64.22,64.30,64.55,64.12
64.15,63.93,64.33,63.76
63.82,63.96,64.08,63.61
63.76,63.08,64.09,62.95
62.97,63.00,63.49,62.95
63.16,62.46,63.26,62.41
62.34,61.75,62.61,61.50
61.22,61.38,61.57,60.73
61.62,62.30,62.35,61.27
64.00,66.35,67.39,63.51
66.32,67.50,67.93,66.05
67.79,67.79,68.71,67.50
67.78,67.28,68.06,66.54
67.40,67.93,68.19,67.23
68.15,68.81,69.34,68.10
68.78,68.37,69.11,68.19
68.28,68.79,68.90,67.93
69.01,69.92,70.10,68.84
69.40,69.18,69.95,68.60
68.63,68.78,69.62,67.93
68.51,69.03,69.58,68.30
69.00,69.87,69.93,68.85
69.62,70.09,70.34,69.15
69.80,69.83,70.28,69.46
69.52,69.11,69.72,68.55
68.64,68.07,69.09,68.00
67.12,67.61,68.12,67.04
64.80,66.15,67.62,64.66
67.88,65.54,68.09,65.47
66.70,66.71,66.77,65.41
67.21,67.66,67.76,66.43
67.22,67.71,67.76,66.94
67.39,67.36,67.79,67.08
66.07,65.80,66.92,65.78
66.55,66.48,66.95,65.50
66.70,67.38,67.46,66.64
66.70,67.27,67.46,66.56
67.75,68.02,68.36,67.28
68.02,67.78,68.62,67.11
67.21,66.91,67.97,66.58
66.68,67.40,67.42,66.08
67.28,66.72,67.28,66.71
67.54,68.41,68.44,67.37
68.31,69.04,69.16,67.88
69.15,68.42,69.38,68.36
67.79,67.15,68.29,67.00
67.48,67.63,68.34,67.14
66.88,66.74,67.42,66.66
66.92,66.68,67.06,65.84
66.27,65.60,66.27,65.16
65.69,65.53,65.69,64.84
65.14,64.15,65.25,64.10
64.14,64.94,65.00,63.62
65.51,65.96,66.28,65.31
65.95,67.24,67.43,65.79
66.64,67.98,68.00,66.16
68.43,68.41,69.03,68.05
68.53,67.68,68.67,67.61
68.01,68.68,68.73,67.72
68.76,69.63,69.76,68.50
69.69,70.26,70.70,69.69
70.31,70.57,70.64,69.92
70.40,70.16,70.88,69.93
70.11,69.67,70.72,69.57
69.88,69.69,70.10,68.95
69.69,69.84,69.91,69.26
69.61,69.99,70.04,69.54
69.91,70.49,70.82,69.91
70.53,69.87,70.80,69.80
70.28,71.29,71.36,70.21
71.96,71.40,72.17,71.06
71.30,71.30,71.68,71.05
71.25,70.95,71.32,69.63
71.06,71.85,71.85,70.72
70.23,72.34,72.35,70.23
71.62,73.56,75.25,71.62
74.77,75.72,75.88,73.84
75.78,74.76,75.96,74.67
74.75,73.23,74.75,73.05
73.33,73.45,73.78,72.99
73.48,73.26,73.48,72.68
73.05,72.45,73.42,71.82
72.42,73.04,73.04,71.88
73.32,73.06,73.62,72.91
72.50,70.80,72.91,70.77
70.68,71.52,71.70,70.57
71.87,72.10,72.18,71.15
72.29,71.97,72.88,71.79
72.22,73.43,73.51,71.92
73.32,73.68,73.78,72.75
73.94,74.29,74.55,73.72
74.24,73.85,74.52,73.70
73.41,74.28,74.72,73.14
74.43,74.87,75.56,74.22
74.80,75.01,75.36,74.30
75.17,74.48,75.49,74.07
74.70,74.97,75.28,74.57
74.80,73.93,75.27,73.73
74.31,73.46,74.59,72.92
73.50,74.35,74.52,73.50
74.03,74.22,74.60,73.63
73.50,73.60,74.06,73.13
73.27,73.08,74.44,72.85
73.24,73.43,73.70,72.73
72.72,72.86,73.56,72.24
72.77,72.55,73.30,72.40
73.00,73.06,73.41,72.48
73.36,73.45,73.81,72.59
73.58,72.26,73.95,72.26
72.26,71.11,72.26,71.09
71.48,71.66,71.98,71.21
71.84,72.31,72.51,71.40
72.84,73.46,73.52,72.45
73.23,73.30,73.64,72.76
72.98,73.71,73.94,72.91
74.00,74.04,74.47,73.60
73.90,73.62,74.32,73.00
73.27,72.65,73.94,72.62
72.00,72.08,72.21,71.23
71.27,71.67,71.99,71.00
70.70,71.18,71.59,70.36
70.02,69.76,70.71,69.60
69.96,69.88,70.63,69.67
69.93,69.82,70.36,69.07
70.31,69.84,70.92,69.33
70.13,68.91,70.83,68.89
69.10,68.75,69.18,68.13
67.52,68.07,68.26,67.00
68.85,68.12,68.85,67.30
67.35,67.83,68.41,66.33
67.90,66.70,68.34,66.69
67.48,68.25,68.32,67.19
67.67,66.86,67.76,66.64
67.64,70.49,70.62,67.57
70.24,70.25,71.65,69.72
70.82,70.67,71.32,70.41
70.86,72.90,72.91,70.86
72.29,72.31,72.69,71.59
71.48,71.32,71.78,70.80
71.81,73.15,73.17,70.63
73.01,72.24,73.72,71.88
72.98,71.12,74.66,70.48
70.56,73.03,73.06,69.88
72.49,74.41,75.27,72.30
74.68,74.19,75.53,73.45
73.19,74.32,75.02,73.19
74.82,75.30,75.65,73.70
76.05,73.95,76.20,73.47
74.25,73.37,74.67,73.17
73.50,73.30,73.75,72.98
73.30,72.88,73.76,71.56
73.47,72.80,73.88,72.44
72.85,72.87,73.02,72.05
72.42,73.91,74.12,72.22
74.00,74.34,74.39,73.48
74.78,73.33,74.95,73.31
73.50,73.71,74.38,72.98
74.04,74.50,75.08,73.75
74.39,74.41,74.82,73.82
74.35,75.20,75.25,73.81
75.20,76.00,76.10,75.14
75.87,75.72,76.42,75.09
75.72,75.79,76.13,75.12
75.95,75.85,76.52,75.10
76.28,75.37,76.81,75.13
75.51,75.78,76.20,75.51
75.78,75.24,76.20,74.88
74.78,76.16,76.50,74.04
75.78,76.55,76.83,75.53
76.84,77.26,77.76,76.51
76.95,76.89,77.58,76.17
76.99,77.38,77.99,76.82
77.00,78.07,78.42,76.64
77.96,78.14,78.89,76.99
77.93,77.39,77.99,76.86
77.68,78.31,78.37,77.45
77.94,78.51,78.71,77.38
78.78,78.73,79.04,78.06
78.83,78.41,79.02,78.20
78.03,79.09,79.16,77.82
79.23,78.91,79.67,78.71
78.32,77.74,78.78,77.50
77.74,77.98,78.19,76.66
77.64,77.35,77.64,76.86
77.85,77.36,77.85,77.04
77.97,77.36,78.17,77.16
77.47,77.59,77.70,76.97
78.03,78.19,78.23,76.87
78.36,78.45,78.57,77.98
78.42,79.25,79.30,78.16
79.00,79.63,79.66,78.93
79.90,79.45,80.32,79.26
79.72,79.77,79.93,79.16
79.61,78.58,80.03,78.43
78.62,79.68,79.79,78.62
78.94,79.02,79.42,78.75
79.32,79.93,80.00,78.74
79.89,79.96,80.36,79.54
79.75,79.29,80.32,79.00
77.22,76.00,77.96,75.71
75.78,76.85,77.33,75.65
76.39,75.75,76.50,75.60
75.25,75.56,75.90,75.01
75.54,76.06,76.48,75.12
76.00,76.28,76.55,75.72
76.17,76.55,76.82,75.66
76.73,77.08,77.30,76.31
77.07,76.83,77.67,76.68
77.32,77.63,77.98,77.08
77.34,76.97,77.34,76.51
77.08,77.40,77.79,76.63
77.26,75.40,77.42,75.24
75.12,75.25,76.09,74.82
74.76,74.85,75.48,74.16
75.31,75.33,75.78,74.96
75.49,74.79,75.63,74.73
75.24,76.38,76.56,75.15
76.35,76.35,76.86,76.08
76.52,76.43,76.76,75.96
76.52,77.14,77.19,76.18
77.22,77.26,77.54,76.83
76.86,77.21,77.21,76.07
77.15,77.35,77.35,76.79
77.57,77.20,77.79,76.94
77.31,77.09,78.03,76.79
77.03,77.49,77.91,77.03
77.59,77.72,78.55,77.12
77.40,77.79,77.87,77.18
77.40,78.20,78.20,77.40
77.75,76.78,78.08,76.62
76.83,76.44,76.96,76.10
76.50,76.32,76.96,76.06
76.06,76.50,76.94,75.66
76.22,76.35,76.60,75.79
77.18,77.62,77.98,77.18
77.62,77.68,78.22,77.47
77.91,78.31,78.31,77.62
79.08,80.14,80.14,79.08
77.20,76.75,78.10,76.54
75.93,74.60,75.97,74.27
74.90,75.69,75.69,74.53
76.55,76.72,76.95,75.95
76.96,79.13,79.15,76.76
78.99,79.17,79.73,78.50
78.85,78.72,79.10,77.80
78.66,78.74,78.82,77.97
78.89,78.49,79.33,78.28
79.27,79.79,79.85,79.10
80.08,80.20,80.47,79.88
80.75,80.41,81.17,80.36
80.77,80.23,80.92,80.08
80.80,80.19,81.00,79.86
80.11,79.92,80.63,79.92
79.92,79.91,80.54,79.58
79.86,79.62,80.09,79.22
79.56,80.30,80.72,79.56
80.06,79.94,80.57,79.73
79.92,80.46,80.79,79.91
80.04,79.95,80.40,79.80
79.88,80.30,80.72,79.88
80.74,79.72,80.74,79.28
79.71,79.38,79.99,78.97
79.92,78.18,81.50,77.10
78.14,77.34,78.14,77.00
77.23,76.61,77.23,75.94
76.71,76.62,76.97,76.25
76.74,76.78,77.49,76.54
77.30,76.59,77.32,76.45
76.71,76.17,77.59,75.99
76.26,75.98,76.60,75.72
76.07,76.22,76.33,75.84
76.58,76.10,76.86,75.87
75.99,75.58,76.10,75.35
75.87,75.50,76.08,75.48
75.59,75.16,75.64,75.08
75.22,75.79,75.82,75.01
75.80,76.83,76.83,75.62
76.46,76.78,76.99,76.24
76.77,77.10,77.22,76.40
77.41,77.34,77.93,77.27
77.22,77.58,77.74,77.22
77.43,78.07,78.54,77.43
78.05,78.47,79.07,78.05
78.50,78.78,79.06,78.50
78.78,78.69,79.12,78.59
78.54,77.98,78.79,77.96
78.12,77.97,78.30,77.49
78.47,79.16,79.18,78.10
79.44,79.46,79.81,78.92
79.18,80.29,80.37,79.18
80.52,79.21,80.55,79.17
78.90,77.46,78.90,77.43
77.00,78.51,78.56,77.00
78.08,77.54,78.37,77.14
77.49,77.37,77.76,77.06
77.30,77.90,77.99,77.26
77.36,77.60,78.01,77.36
77.90,78.61,78.80,77.89
79.10,78.72,79.40,78.70
78.81,78.42,78.81,77.84
79.06,79.46,79.51,78.36
79.17,78.79,79.49,78.61
78.69,78.06,78.97,78.03
77.36,77.74,78.14,77.36
78.36,78.61,78.65,77.61
78.28,77.21,78.57,77.08
77.36,77.41,77.92,76.97
77.07,77.36,77.44,76.60
77.24,76.10,77.68,76.00
76.46,76.11,76.59,75.93
76.10,76.64,76.67,75.76
76.66,75.64,76.66,75.19
76.04,75.95,76.52,75.68
75.62,75.07,75.72,74.55
75.56,75.66,75.81,75.10
74.78,75.59,76.20,74.58
75.62,76.03,76.32,75.57
76.02,76.20,76.47,76.01
76.78,76.39,77.00,75.98
76.28,76.48,76.78,76.04
76.12,75.97,76.80,75.39
76.23,77.16,77.41,75.87
78.10,77.00,78.10,76.55
77.00,77.00,77.14,76.19
76.82,76.27,77.19,76.20
76.39,76.28,76.39,75.60
75.11,73.02,75.99,72.58
72.93,71.44,73.89,70.88
71.81,70.62,71.85,70.32
70.58,70.92,71.54,70.43
70.85,70.87,71.46,70.64
71.11,71.41,71.90,70.98
72.57,74.33,74.35,72.29
74.28,75.74,76.07,74.05
74.91,75.11,76.07,74.53
75.60,71.43,75.60,71.27
71.36,71.85,72.13,70.75
72.29,73.51,73.54,72.29
73.48,73.38,73.80,72.99
73.63,73.57,73.72,72.91
73.58,73.58,74.26,72.80
73.42,73.65,73.76,72.87
73.70,74.24,74.26,73.34
74.60,75.49,75.65,73.96
75.17,76.05,76.25,75.17
76.04,76.07,76.66,75.75
76.10,76.47,77.28,76.02
76.55,75.68,76.86,74.80
76.02,73.18,76.05,73.17
73.20,74.08,74.34,72.46
74.05,74.35,74.55,73.60
74.84,73.38,75.13,73.16
73.31,73.80,73.86,73.10
71.84,73.48,73.92,71.84
73.49,74.20,74.59,73.49
74.61,74.75,75.18,74.28
74.85,74.61,75.15,74.15
74.90,74.37,75.60,74.31
74.57,73.05,74.97,72.96
73.32,72.96,73.72,72.83
73.22,72.93,73.40,72.73
73.19,73.80,74.03,72.78
73.65,73.98,74.06,73.40
73.87,73.36,74.16,73.34
73.50,73.02,73.50,72.58
72.86,73.61,73.93,72.86
73.81,74.17,74.57,73.45
74.05,73.72,74.69,73.57
73.64,73.69,74.12,73.32
73.73,73.45,74.02,73.25
74.26,73.02,74.26,72.35
72.92,74.23,74.72,72.92
73.72,73.47,74.41,73.23
73.53,73.50,73.97,73.07
73.50,73.68,74.41,73.08
73.33,72.82,73.59,72.80
73.03,73.04,73.36,72.78
73.15,73.33,73.76,72.36
73.31,73.50,73.82,73.03
