EOG,EOG Resources,NASDAQ
49.68,50.19,50.22,49.62
49.50,49.58,50.00,48.90
49.42,49.74,49.84,48.84
49.44,49.28,49.52,48.72
48.86,49.52,49.64,48.14
49.79,49.07,49.90,48.51
47.88,47.71,48.55,47.58
47.59,48.88,49.08,47.02
48.84,49.00,49.36,48.72
49.00,48.44,49.44,48.34
48.16,48.68,48.80,48.04
47.91,48.16,48.26,47.62
48.28,48.30,48.78,47.65
48.14,47.02,48.60,46.88
47.43,47.48,48.07,47.31
46.98,46.57,47.54,46.22
46.12,46.20,46.91,45.05
46.50,45.76,46.67,44.78
45.88,45.21,47.02,44.68
45.63,47.78,47.83,45.62
47.92,48.52,48.61,47.13
48.08,48.60,49.11,48.03
47.88,46.45,48.02,46.39
46.45,46.43,46.69,45.01
46.27,45.79,46.88,45.44
46.52,47.27,47.65,46.19
45.32,44.12,45.50,43.39
43.96,45.53,45.58,43.88
44.74,45.49,45.62,44.30
46.32,46.41,46.94,46.14
46.55,46.43,46.64,46.10
46.21,47.17,47.41,46.05
46.94,47.32,47.52,46.50
47.61,46.06,47.61,45.90
45.70,44.96,45.98,44.80
45.70,46.34,46.49,45.41
45.33,46.61,46.66,44.98
46.77,47.02,47.19,46.20
47.24,47.32,47.78,47.12
47.58,47.42,48.04,47.26
47.73,47.91,48.16,47.39
48.02,47.60,48.47,47.42
47.98,48.69,48.74,47.63
48.57,48.68,49.11,48.50
48.26,49.02,49.64,48.26
48.94,49.42,49.69,48.71
49.31,48.89,49.60,48.69
49.42,48.79,49.46,48.54
48.66,48.44,48.74,47.68
48.74,48.24,48.74,47.98
48.38,47.90,48.77,47.62
48.02,46.64,48.20,46.18
46.91,45.85,47.18,45.17
45.38,45.75,46.32,44.80
45.86,47.07,47.12,45.76
46.58,46.28,47.22,46.05
46.64,44.71,46.96,44.56
44.84,44.80,44.84,43.76
45.80,46.48,46.54,45.78
46.46,46.67,46.84,46.11
46.75,46.47,47.00,46.34
47.02,47.79,47.80,47.00
48.08,48.88,49.06,47.80
48.80,48.69,49.30,48.55
50.21,51.87,52.62,49.94
51.96,53.48,53.89,51.87
53.66,52.38,54.10,52.34
52.29,53.59,53.65,51.96
53.48,53.69,54.20,52.58
54.42,54.64,54.72,53.66
54.69,55.25,55.48,54.35
54.78,53.74,55.18,53.65
53.23,54.00,54.20,53.15
54.44,55.76,55.84,54.44
55.66,55.94,56.11,55.22
55.48,56.50,56.61,54.93
56.08,56.86,56.93,55.54
56.98,56.24,57.29,56.08
56.02,54.32,56.52,54.18
54.70,54.71,55.20,54.04
55.10,55.63,55.80,54.60
55.77,56.06,57.48,55.28
56.41,56.78,57.45,55.52
54.68,55.12,55.27,52.72
54.00,52.58,54.47,52.14
52.20,51.18,52.74,48.28
50.91,50.42,52.28,49.46
51.34,53.24,53.88,50.78
52.49,52.37,52.70,51.92
52.50,54.19,54.37,52.50
54.06,54.04,55.06,53.80
53.47,53.04,53.81,51.70
53.08,51.62,53.64,50.48
52.50,51.42,52.96,51.24
51.26,51.12,52.12,49.80
49.82,48.14,49.89,48.02
47.19,50.30,50.33,46.64
49.82,48.68,50.54,48.63
46.75,49.36,49.46,46.72
50.01,49.87,50.94,49.70
50.98,53.26,53.36,50.72
53.02,52.42,53.78,51.92
51.80,50.42,52.50,50.30
51.05,53.88,53.90,50.44
53.74,54.86,54.96,52.56
53.90,51.50,55.30,50.96
51.78,50.57,53.10,49.69
51.26,52.68,52.90,50.55
53.09,51.90,54.27,51.54
52.91,54.38,54.44,52.91
54.00,54.93,54.96,53.48
55.47,54.48,56.08,54.32
55.30,55.18,55.52,54.42
54.72,55.20,55.71,54.36
55.21,55.03,55.57,54.26
55.00,55.11,55.28,54.49
56.00,55.30,56.95,54.76
55.30,53.22,55.68,52.91
53.28,53.42,53.96,52.63
52.91,52.30,54.11,51.99
53.12,54.89,54.98,52.30
54.47,52.71,54.78,52.47
51.66,50.12,51.88,49.76
50.13,49.18,50.68,49.02
49.26,49.54,49.99,47.89
49.34,49.17,50.32,48.78
50.17,49.92,51.35,49.38
50.06,51.90,51.91,49.62
52.44,53.11,53.40,51.88
52.94,52.78,53.44,52.12
52.65,52.77,53.30,52.34
53.50,53.40,54.16,53.26
53.06,53.32,54.24,52.58
53.50,53.10,53.50,51.96
52.56,51.14,52.76,50.56
51.34,51.00,51.76,50.34
50.24,52.08,52.24,50.00
52.26,51.21,52.32,50.76
51.92,51.60,52.37,51.38
51.40,51.16,51.60,50.30
51.10,51.86,52.21,51.10
51.93,50.28,51.97,49.56
50.46,50.28,50.93,50.01
50.86,50.29,51.01,49.74
49.79,48.75,50.49,48.57
49.66,51.26,51.42,49.53
51.15,50.85,51.42,50.60
51.03,51.50,51.88,50.76
51.12,51.22,51.45,50.56
48.22,49.63,49.86,47.62
50.08,49.97,50.30,49.06
49.40,50.35,50.70,49.24
49.30,48.58,49.59,48.36
47.70,47.68,48.93,47.52
47.66,47.08,47.96,46.86
46.74,47.04,47.10,46.06
47.54,47.58,47.80,46.90
47.38,46.68,47.50,45.98
46.50,45.76,46.80,45.56
45.63,45.71,45.85,45.22
45.82,45.86,46.48,45.70
45.15,44.30,45.24,43.77
43.96,43.73,43.99,42.71
44.04,43.31,44.51,43.09
43.78,44.70,44.80,42.90
44.62,43.78,44.96,43.76
43.58,43.44,44.16,42.96
44.14,44.97,45.03,43.64
45.04,44.74,45.04,44.22
45.16,45.16,45.69,44.90
44.63,44.36,44.94,44.17
44.36,45.14,45.32,44.36
45.72,44.68,45.75,44.26
44.81,46.10,46.28,44.81
46.58,46.14,46.58,45.82
45.94,46.10,46.57,45.65
45.87,45.79,46.08,45.36
46.10,45.50,46.35,45.22
45.54,44.56,45.54,43.92
44.71,43.86,44.94,43.68
44.00,44.81,45.12,43.64
44.85,45.18,45.46,44.85
44.65,44.84,45.39,44.32
45.57,46.06,46.44,45.03
46.12,45.62,46.48,45.60
45.68,45.89,45.99,45.04
45.50,46.91,46.97,45.38
47.24,46.48,47.42,45.86
47.06,48.08,48.30,46.99
47.68,47.86,48.42,47.59
48.38,48.66,48.88,47.72
48.64,49.26,49.72,48.60
49.50,49.28,49.54,48.81
49.34,49.73,49.91,48.98
49.50,49.78,50.32,49.40
49.44,49.46,49.72,48.90
49.86,49.38,50.12,49.18
48.94,49.50,49.87,48.94
49.85,50.02,50.42,49.58
49.94,50.66,51.03,49.78
49.89,49.74,50.05,49.27
49.78,50.06,50.41,49.58
50.22,49.40,50.84,48.84
49.74,48.66,49.74,48.24
49.02,48.73,49.46,48.56
48.43,47.88,48.84,47.59
47.46,47.88,47.95,46.83
48.20,47.47,48.46,47.17
47.26,47.86,48.02,47.07
48.44,48.04,48.96,47.68
48.58,48.87,49.18,47.93
45.24,44.32,45.25,43.00
44.88,44.14,44.88,43.16
44.33,44.30,44.43,43.50
44.60,44.73,45.67,44.38
45.07,46.00,46.40,44.93
46.20,46.94,47.04,46.04
46.61,47.06,47.50,46.61
46.56,46.02,46.72,45.62
46.75,46.22,47.11,46.04
45.71,45.52,45.71,44.80
45.64,45.08,45.96,44.99
45.26,46.06,46.36,45.02
45.82,46.48,46.54,45.57
46.34,46.25,46.82,45.49
45.58,44.35,45.60,44.25
44.65,44.90,45.02,44.27
44.48,44.46,44.90,44.42
44.32,44.61,44.82,43.80
44.21,44.48,44.94,44.00
45.24,45.82,45.86,44.78
45.76,46.93,47.00,45.76
46.73,46.87,47.00,46.39
46.78,47.19,47.35,46.76
47.78,46.36,48.04,46.22
46.58,46.10,46.76,45.70
46.18,46.12,46.70,45.88
45.96,45.38,46.22,45.36
45.75,45.35,46.25,45.30
45.41,45.82,46.04,45.09
45.68,45.06,46.10,44.92
45.08,45.26,45.36,44.88
45.20,45.84,45.90,45.04
45.94,45.73,46.00,44.94
45.86,45.82,46.22,45.54
45.96,46.10,46.28,45.73
45.30,45.72,46.03,45.16
45.62,45.06,45.72,44.76
45.26,44.99,45.32,44.96
45.24,45.60,45.77,44.98
45.61,45.88,46.03,45.44
45.82,45.70,46.06,45.66
46.22,46.18,46.75,46.14
46.54,46.07,46.64,45.70
45.63,46.16,46.50,45.42
46.68,46.41,47.22,46.15
46.63,47.13,47.18,46.46
47.08,47.48,47.50,46.91
47.72,48.36,48.44,47.39
48.74,49.24,49.66,48.46
49.12,48.93,49.29,48.52
48.90,50.29,50.36,48.62
50.42,51.44,51.60,50.16
51.42,50.72,51.50,50.38
49.89,50.68,50.74,49.62
51.00,50.86,51.29,50.25
50.68,50.86,51.06,50.30
50.79,49.94,50.79,49.47
50.19,51.14,51.47,50.12
50.96,51.62,52.07,50.86
51.68,51.26,52.58,51.08
51.37,53.20,53.29,51.37
53.36,53.69,54.14,52.92
53.50,53.62,54.14,53.17
53.44,53.52,53.62,52.81
53.65,53.39,53.74,52.86
53.68,52.80,54.24,52.72
52.91,52.38,52.91,51.78
52.15,51.98,52.66,51.38
51.74,52.12,52.34,51.54
51.92,51.65,52.25,51.52
51.68,52.45,53.26,51.68
52.40,51.78,53.10,51.58
52.04,51.50,52.68,51.47
51.64,52.11,52.29,51.17
53.42,54.44,54.90,53.40
54.93,54.16,55.81,54.04
54.26,57.20,57.37,54.26
57.30,55.08,57.58,54.90
55.35,55.88,56.24,55.02
56.04,56.16,56.62,55.78
54.75,53.96,56.10,53.94
52.92,54.34,54.48,52.19
54.66,55.54,55.64,53.99
55.40,54.69,55.79,54.20
55.12,54.29,55.70,54.09
54.27,53.10,54.45,53.04
53.07,52.90,53.82,52.60
52.26,51.42,52.26,51.20
51.30,52.82,53.28,51.00
52.54,53.26,53.55,52.06
51.64,52.72,53.24,51.32
52.90,52.24,53.76,51.54
53.38,54.34,54.58,52.94
54.88,53.96,55.22,53.52
54.74,55.70,55.73,54.50
56.17,56.68,57.22,56.00
56.72,57.04,57.04,56.00
57.46,57.78,57.85,56.51
57.91,58.77,59.06,57.38
58.38,59.22,59.86,58.17
58.76,59.84,59.88,57.90
60.15,59.60,60.72,59.18
59.62,59.26,60.05,59.21
59.58,59.20,59.65,58.91
59.45,59.18,59.91,59.04
59.02,58.46,59.37,58.32
58.86,57.40,58.98,57.38
57.26,57.33,57.84,56.38
57.73,57.33,58.20,56.90
57.28,56.34,57.49,55.93
55.76,54.62,55.76,54.08
55.04,55.30,56.10,54.82
54.85,55.36,55.64,54.35
55.42,55.52,55.94,54.78
54.86,54.94,55.20,53.92
54.96,54.74,55.20,54.24
55.66,55.91,56.00,55.22
55.66,55.94,56.14,55.30
56.00,55.17,56.10,54.86
55.37,55.86,55.88,54.99
56.00,55.88,56.10,54.60
55.80,55.99,56.52,55.16
55.92,56.52,56.78,55.54
56.74,55.47,56.90,55.24
55.34,54.08,55.35,53.62
53.88,53.14,53.88,52.42
52.13,52.18,52.72,50.92
54.50,53.72,55.68,53.06
55.12,55.66,55.95,54.75
55.71,55.42,55.89,54.89
55.22,53.34,55.34,53.00
52.73,52.76,53.46,52.06
52.91,52.72,53.40,52.20
52.58,52.35,53.86,52.12
52.06,52.80,53.09,51.88
52.94,53.31,53.73,52.75
53.48,53.00,53.61,52.54
53.04,53.42,53.97,52.44
52.55,52.12,52.80,51.98
52.58,53.03,53.54,52.42
52.75,53.60,53.96,52.75
53.35,53.62,53.75,52.70
53.94,54.08,54.54,53.70
55.00,54.57,55.10,53.55
54.76,54.10,55.84,53.98
54.20,55.46,55.86,54.20
54.68,55.28,55.90,53.90
55.27,54.53,56.02,54.52
54.76,54.02,55.02,54.01
54.06,54.47,55.43,54.06
54.78,55.39,55.58,54.52
55.00,53.84,55.23,53.78
54.00,52.36,54.28,51.82
53.13,52.52,53.49,52.31
52.08,51.44,52.67,51.12
51.28,50.80,51.78,50.62
51.20,51.12,51.50,50.36
50.76,50.45,50.96,50.11
50.76,51.10,51.59,50.62
50.86,50.67,51.70,50.61
49.53,50.08,50.12,48.31
50.04,49.14,50.20,49.04
48.70,50.16,50.22,48.60
50.30,51.20,51.40,50.00
51.32,51.55,52.08,50.80
51.78,52.28,52.42,51.62
52.18,51.54,52.28,51.01
51.66,51.62,52.50,51.48
51.52,51.14,51.66,50.88
51.84,51.78,52.00,51.22
50.99,50.96,51.31,50.58
50.22,49.50,50.22,49.28
49.42,49.44,50.06,49.26
49.76,49.47,50.54,49.29
49.73,48.36,49.79,48.20
50.00,50.60,51.06,49.87
50.70,50.76,51.30,50.24
51.00,52.02,52.14,51.00
52.40,51.90,52.40,51.76
52.32,52.78,52.95,52.04
52.78,53.28,53.30,52.50
52.60,53.10,53.73,52.40
53.10,53.28,53.94,52.31
53.00,52.04,53.01,51.98
52.02,51.72,52.66,51.54
51.09,51.00,51.68,50.75
51.94,50.81,52.16,50.24
50.43,49.60,51.18,49.54
49.64,48.99,49.66,47.78
48.26,46.06,48.26,45.72
49.14,47.96,50.61,46.70
46.80,44.30,46.90,43.53
45.14,45.43,45.95,43.05
45.26,43.50,45.54,43.34
43.98,46.57,47.14,43.48
48.39,47.08,48.92,46.57
47.60,48.14,48.24,47.32
47.50,47.29,47.85,46.56
47.64,47.00,48.52,46.51
45.83,43.82,45.83,43.42
43.31,43.78,44.88,43.25
44.95,43.18,45.25,42.92
43.16,44.48,44.50,42.79
44.18,44.96,45.02,43.92
45.31,44.13,45.62,43.76
43.87,44.92,45.08,43.00
45.61,45.78,45.84,44.90
45.55,46.10,46.38,44.88
46.49,46.30,47.08,45.72
46.66,45.71,47.08,45.64
44.68,44.18,45.10,43.91
42.87,43.48,43.56,42.46
44.24,45.34,45.42,44.05
44.81,44.62,45.98,44.38
43.66,42.66,44.14,42.46
42.26,43.06,43.08,41.96
43.22,43.38,43.71,42.66
42.93,43.88,44.43,42.55
44.44,45.20,45.20,44.06
45.56,45.08,45.62,44.62
44.06,43.88,44.31,42.98
44.10,43.56,44.78,43.44
43.48,41.72,44.16,41.70
40.42,38.38,40.46,37.56
37.68,36.86,38.58,36.68
37.63,38.34,38.40,36.57
39.32,39.30,40.26,39.02
39.36,37.14,39.40,37.07
38.02,36.89,38.18,35.94
35.70,35.50,36.38,34.78
35.07,34.20,35.12,33.90
33.67,36.83,37.02,33.40
36.86,38.40,38.48,36.61
38.18,39.27,39.46,37.76
39.52,37.45,39.62,37.36
38.42,39.70,39.72,38.37
39.32,40.07,40.24,38.98
40.40,40.48,41.34,40.15
40.01,40.11,40.26,38.82
41.04,41.99,42.04,40.86
41.65,40.70,42.05,40.56
40.76,43.01,43.30,40.12
42.83,43.94,44.59,42.76
43.76,43.67,44.02,42.54
44.48,45.31,45.54,44.10
45.56,45.54,45.90,45.12
45.54,43.76,45.54,43.62
44.49,43.71,44.64,43.17
45.50,45.91,47.00,44.92
45.82,47.59,47.63,45.82
46.70,44.72,46.75,44.65
43.00,42.94,43.50,41.94
45.36,48.02,48.91,45.06
48.79,50.02,50.30,48.10
49.42,50.84,51.26,49.14
50.74,50.58,51.20,49.86
50.88,50.96,51.12,49.72
49.72,49.12,50.33,49.00
49.70,50.02,50.38,49.22
50.60,52.00,52.02,50.58
51.47,51.88,52.24,50.65
51.66,51.18,51.96,51.00
50.97,50.34,51.70,50.27
50.20,48.51,50.65,48.08
49.18,48.92,49.93,48.02
47.86,48.00,48.32,47.02
47.79,47.49,48.16,46.82
46.80,45.80,46.94,45.70
45.42,45.44,46.42,45.38
47.00,47.80,48.40,46.93
48.14,49.12,49.46,48.00
51.02,51.87,52.20,51.02
51.82,51.26,52.50,50.84
51.90,51.28,52.00,51.06
52.00,51.06,52.43,50.62
51.23,52.44,53.10,51.04
52.06,51.52,52.14,50.83
51.27,50.32,52.29,50.06
50.24,51.88,52.21,50.24
51.04,50.52,51.13,49.58
50.88,49.25,51.56,48.58
48.49,46.58,48.53,46.56
47.28,47.22,47.78,46.50
47.72,48.84,48.95,47.37
48.76,47.78,48.86,47.60
48.92,48.98,49.60,48.68
49.12,49.09,49.34,48.26
49.11,49.16,49.32,48.97
49.24,49.14,49.56,48.62
49.20,49.50,49.87,49.05
49.62,48.22,49.74,48.06
48.18,49.02,49.09,48.18
49.02,49.26,49.55,48.90
50.30,50.72,51.06,50.20
50.73,50.80,51.00,50.31
50.58,51.08,51.26,49.91
51.12,51.22,51.88,51.00
51.24,51.08,51.53,50.75
52.70,52.76,53.63,52.45
52.39,51.58,52.74,51.48
51.82,51.94,52.35,51.27
51.34,51.52,51.72,50.72
52.35,51.86,52.56,51.33
51.81,52.68,52.91,51.40
52.84,52.54,53.26,52.34
52.44,51.58,52.48,51.22
52.42,52.80,53.32,52.18
52.32,52.28,52.44,51.75
52.14,53.40,53.60,51.51
53.64,52.38,53.75,52.12
52.16,52.06,52.63,51.74
51.50,52.66,52.72,51.08
52.78,53.07,53.14,52.35
53.48,52.95,53.49,52.34
52.82,53.24,54.06,52.48
54.02,54.54,55.06,53.55
54.74,55.03,55.28,54.38
55.00,55.56,55.75,54.52
55.72,55.71,55.84,54.78
55.52,56.22,56.83,55.44
55.38,55.92,55.92,55.08
56.27,56.69,56.82,56.09
56.58,56.88,56.91,56.18
57.25,57.42,57.95,56.68
57.50,58.81,59.40,57.26
59.54,57.18,59.98,56.74
57.99,57.82,58.50,57.50
57.98,57.83,58.76,57.78
57.92,58.25,58.30,57.25
58.33,58.78,59.04,58.10
58.66,57.81,58.90,57.81
57.96,58.30,58.60,57.75
58.36,56.93,58.60,56.69
57.12,58.46,58.50,57.12
58.20,56.95,58.39,56.54
56.76,56.60,56.81,55.68
55.56,56.36,56.40,55.11
56.36,56.57,56.84,56.02
57.36,57.20,57.66,56.66
57.25,57.49,57.88,57.03
57.62,56.86,57.62,56.26
56.92,58.42,58.47,56.51
58.40,57.34,58.48,57.04
57.42,57.82,58.14,57.02
58.18,58.39,58.94,57.90
58.32,58.70,58.98,58.06
58.07,57.36,58.07,57.08
57.36,56.90,57.55,56.54
56.18,55.18,56.57,54.93
55.24,55.86,56.33,55.08
56.38,56.08,56.60,55.80
56.23,55.64,56.26,55.46
55.37,54.82,55.48,54.25
54.24,54.51,54.63,53.58
54.74,55.55,55.74,54.38
55.50,56.68,57.16,55.16
56.32,56.78,56.85,56.08
56.03,55.26,56.20,54.85
55.06,54.59,55.74,54.42
53.48,53.72,54.02,53.30
53.72,52.00,53.86,51.90
52.59,51.48,52.76,51.26
51.50,52.61,52.82,51.47
52.36,51.66,52.65,51.55
51.93,51.38,52.56,50.92
51.96,52.40,52.66,51.76
52.20,52.08,52.49,51.78
52.15,51.98,52.64,51.66
52.44,51.52,52.75,51.40
50.30,51.80,51.88,50.30
52.06,52.22,52.46,51.70
52.69,53.22,53.26,52.30
53.21,54.26,54.44,53.00
54.50,54.51,54.62,54.05
54.44,54.90,54.97,53.92
55.15,55.62,56.12,54.90
54.95,54.64,54.95,54.11
54.50,53.86,54.97,53.61
53.20,52.64,53.60,52.19
52.24,52.38,52.92,51.64
51.81,52.00,52.10,50.20
51.90,52.55,52.84,50.38
53.37,53.26,53.66,52.76
52.74,52.12,53.28,51.96
51.45,50.52,51.45,50.44
50.50,49.60,50.85,49.32
49.83,49.48,50.80,49.28
49.46,48.67,49.66,48.58
48.94,48.16,49.31,47.89
48.66,50.10,50.13,48.64
50.80,50.66,51.74,50.24
50.14,50.85,50.90,48.89
51.00,50.40,51.20,49.57
50.28,50.88,51.22,50.28
52.22,52.43,52.66,51.58
51.67,50.50,51.67,49.95
50.38,49.65,50.42,48.20
47.94,45.84,48.07,45.67
45.98,45.20,46.08,44.42
44.80,45.94,46.12,44.78
46.52,47.46,47.48,46.42
48.29,47.72,48.70,47.20
46.91,46.94,47.06,45.88
47.68,45.96,48.05,45.90
46.30,47.08,47.18,46.12
46.90,46.35,47.62,46.01
46.45,47.23,47.48,46.11
47.44,48.32,48.39,46.96
48.02,47.36,48.08,47.18
47.84,47.98,48.16,47.29
48.07,46.47,48.38,46.07
46.42,43.24,46.64,43.17
43.84,43.81,43.98,42.94
42.84,42.45,42.94,41.83
42.46,41.98,42.78,41.24
42.12,42.86,43.08,42.04
42.60,42.58,42.92,41.94
43.98,45.06,45.13,43.78
44.77,44.47,44.97,43.77
45.00,47.44,47.50,45.00
47.04,46.00,47.25,45.88
44.88,45.32,45.68,44.54
45.20,45.74,46.44,45.09
45.74,44.68,45.98,44.38
44.86,45.94,46.31,44.86
45.08,45.52,45.92,44.54
45.68,46.46,46.54,45.60
46.22,46.62,46.92,45.64
47.09,47.62,47.72,46.16
47.42,48.35,48.72,47.28
48.60,49.12,49.32,48.38
48.74,49.62,49.64,48.12
48.32,48.60,48.74,47.12
48.64,47.75,48.95,47.21
48.24,47.84,48.36,47.10
48.67,48.71,49.29,48.13
48.98,50.50,50.74,48.72
50.34,49.78,50.81,49.22
49.71,49.00,49.95,48.98
nan,49.00,nan,nan
49.06,48.06,49.56,47.64
51.53,53.38,54.38,51.07
53.48,52.87,53.66,52.76
52.86,54.37,54.75,52.78
53.71,53.95,54.53,53.70
53.76,54.70,55.40,53.72
54.06,55.00,55.18,54.00
55.45,54.65,55.45,54.41
55.13,55.18,55.56,54.86
54.84,54.91,55.36,54.48
54.88,55.50,55.54,54.70
55.66,55.60,55.86,55.05
55.76,54.78,55.78,54.58
55.14,54.38,55.42,54.14
54.28,54.46,54.60,53.55
54.38,53.50,54.59,53.22
53.48,54.46,54.59,53.28
54.49,54.58,54.98,54.08
54.62,54.41,54.96,54.02
54.44,54.02,54.49,53.74
53.72,52.94,53.72,52.72
53.50,54.15,54.30,53.05
54.21,54.66,54.88,53.60
54.54,54.27,54.76,54.22
54.91,56.20,56.60,54.80
55.48,56.44,56.64,55.36
56.50,56.20,57.24,56.04
56.40,56.22,56.73,55.96
56.42,56.49,56.97,55.80
56.72,57.59,58.06,55.90
57.87,58.81,59.84,57.87
58.70,58.20,59.12,57.94
58.12,57.94,58.41,57.28
57.83,56.78,57.90,56.75
56.46,56.78,57.04,55.74
57.28,56.98,57.37,56.62
56.30,56.60,56.87,56.08
56.85,56.21,57.20,56.13
55.94,55.30,56.04,55.20
55.88,56.60,56.88,55.75
56.30,56.02,56.50,55.57
56.50,57.10,57.34,56.46
57.40,57.57,57.64,56.94
57.42,55.54,57.50,55.40
55.96,55.71,56.12,55.32
55.76,54.96,56.20,54.75
54.43,54.91,54.98,54.32
54.96,55.52,55.90,54.64
55.42,54.75,55.68,54.60
55.20,54.92,55.64,54.80
54.98,54.39,55.16,53.94
54.33,55.12,55.29,53.88
55.86,56.87,56.94,55.76
57.27,57.62,57.82,56.78
57.27,57.38,57.54,56.87
57.26,56.54,57.72,56.28
56.39,56.06,56.47,55.22
55.04,55.08,55.45,54.52
55.44,55.35,55.77,54.88
56.02,56.21,56.22,55.46
56.14,57.04,57.25,56.00
57.12,58.24,58.28,57.12
58.24,58.44,59.30,58.02
58.88,57.60,59.26,57.34
57.28,58.40,58.54,57.28
61.70,60.99,62.24,60.65
60.00,60.00,60.48,59.66
59.94,57.88,60.38,57.86
57.82,57.26,58.38,57.22
57.54,57.38,57.80,56.72
56.95,57.64,58.57,56.84
57.69,56.68,57.95,56.50
56.72,58.08,58.28,56.66
58.62,58.34,58.73,57.40
59.10,59.30,60.40,58.91
59.20,58.70,59.27,58.28
58.90,59.07,59.27,58.70
59.25,59.50,59.58,58.82
58.72,58.32,58.92,57.80
57.77,57.54,58.03,57.22
57.04,58.18,58.30,56.36
58.80,58.82,59.21,58.40
58.70,58.81,59.20,58.52
59.12,58.62,59.55,58.56
58.47,58.59,59.00,58.34
58.75,59.36,59.78,58.67
59.14,59.18,59.38,58.50
59.36,58.68,59.36,58.46
58.60,58.86,58.93,58.28
59.16,59.36,59.75,58.98
59.60,60.37,60.68,59.36
60.16,59.26,60.32,59.18
59.19,59.50,59.90,59.02
59.70,60.48,60.49,59.39
60.54,61.96,62.12,60.50
61.80,61.22,62.01,61.22
61.40,62.18,62.25,61.20
61.21,61.78,62.08,60.94
61.56,61.38,62.10,61.34
61.57,60.78,61.58,60.61
60.99,60.82,61.08,59.78
60.28,59.30,60.46,59.25
59.06,60.40,60.49,59.00
61.70,61.84,61.84,60.72
61.74,62.09,62.74,61.24
62.12,62.90,63.12,61.98
62.60,63.00,63.05,62.08
62.88,62.07,63.00,61.59
62.18,62.32,62.58,61.84
62.70,63.05,63.06,62.28
63.03,62.82,63.22,62.50
62.82,62.33,63.14,62.12
62.00,62.55,62.75,61.88
62.42,62.68,62.75,62.20
63.00,63.02,63.28,62.44
63.17,63.40,63.54,62.61
63.48,63.25,63.67,62.45
63.08,62.38,63.30,62.25
62.45,62.50,63.20,62.40
62.68,62.64,63.27,62.27
62.90,62.10,62.90,61.78
62.33,63.47,63.60,62.00
63.58,63.16,64.72,63.08
62.75,62.49,62.98,62.25
63.32,64.30,64.40,62.50
63.84,63.64,63.90,63.30
64.32,64.41,64.64,63.95
63.86,64.84,64.96,63.76
64.86,64.88,65.06,64.02
65.07,66.64,66.70,65.07
66.64,66.67,66.84,66.06
66.75,67.05,67.34,66.40
67.00,66.80,67.20,66.40
69.04,66.66,69.10,66.54
66.63,64.60,67.00,63.89
65.28,65.70,65.79,65.02
65.72,63.70,65.87,63.66
63.24,62.02,63.53,61.78
62.50,62.67,62.92,61.84
62.84,60.88,63.48,60.82
61.18,61.75,61.92,60.38
61.56,63.46,63.56,61.38
63.22,62.86,63.98,62.80
62.32,61.50,62.68,61.12
61.39,60.90,61.44,60.50
61.54,62.35,62.52,61.21
62.59,62.80,62.98,62.16
62.88,63.78,64.12,62.68
64.10,64.34,64.46,63.74
64.16,64.33,64.68,63.71
64.75,65.04,65.20,64.56
65.00,64.94,65.59,64.74
65.24,65.92,66.00,65.14
65.74,65.21,66.42,65.20
64.46,64.46,65.21,64.16
64.55,63.64,64.76,63.36
64.18,63.12,64.40,63.08
62.64,61.95,63.42,61.92
62.22,62.49,62.54,61.81
62.88,61.96,63.40,61.52
62.24,64.45,64.70,62.18
63.94,64.10,64.34,63.10
64.08,64.04,64.58,63.72
64.04,64.26,64.42,63.32
64.40,64.52,65.02,64.02
64.52,63.05,64.71,62.88
63.04,61.43,63.04,61.32
60.50,62.38,62.44,60.38
62.47,63.44,63.61,62.26
63.54,64.12,64.60,63.10
64.28,64.31,65.10,64.24
64.50,64.13,64.83,63.86
63.65,62.06,63.90,62.00
61.18,58.10,61.18,58.06
58.92,59.58,59.82,57.91
58.70,57.41,58.93,56.73
57.70,57.66,57.98,56.02
58.08,56.72,58.14,56.46
56.98,58.20,58.41,56.76
58.45,58.50,58.69,57.64
58.52,59.96,60.22,58.50
60.08,60.93,61.76,59.68
60.85,59.56,60.96,59.50
60.25,60.96,61.36,59.94
60.90,60.58,61.37,60.30
60.20,59.42,60.20,58.88
59.62,59.84,60.13,59.00
60.70,61.99,62.10,60.70
62.30,63.02,63.36,61.63
66.90,67.84,68.98,66.48
68.02,68.95,69.39,67.96
69.40,68.04,69.50,67.76
67.74,66.79,67.74,65.85
66.41,66.83,67.27,66.16
67.00,68.34,68.48,66.91
68.24,67.34,68.82,67.02
67.26,66.61,67.46,66.37
66.90,67.62,67.94,66.76
67.68,67.80,68.58,67.44
67.89,67.14,68.13,67.02
67.08,65.46,67.76,64.91
64.48,65.70,65.82,64.12
64.86,65.42,65.48,64.32
66.23,65.56,66.62,64.76
65.17,66.42,66.71,65.06
66.16,66.34,66.97,65.45
65.86,64.55,66.30,64.54
65.08,65.88,66.06,64.86
65.74,66.08,66.32,65.16
65.83,64.26,65.98,64.24
64.46,65.32,65.32,63.76
65.55,66.34,66.82,65.10
66.16,65.81,66.30,65.58
64.64,64.56,65.16,64.12
65.63,64.82,65.88,64.74
64.84,66.66,66.75,64.68
66.80,65.87,66.80,65.56
66.60,66.66,67.17,66.08
66.75,67.51,67.98,66.57
67.48,67.80,69.00,67.39
66.86,65.50,66.94,64.90
66.12,65.20,66.20,64.28
64.44,63.70,64.73,62.26
64.51,65.08,65.55,64.11
65.60,65.92,66.28,64.76
66.58,65.50,67.04,65.36
65.22,65.84,66.50,65.01
66.90,67.66,68.22,66.62
67.62,68.94,69.64,67.62
69.00,69.09,69.25,68.40
69.53,70.20,70.32,69.32
70.75,69.88,71.26,69.50
70.48,71.11,71.24,70.20
71.34,71.14,71.84,70.82
72.00,71.78,73.40,71.44
71.55,72.36,72.38,70.96
72.32,71.77,72.81,71.29
71.89,72.28,72.77,71.88
72.52,72.92,73.21,72.32
73.21,73.50,74.14,73.11
73.90,74.34,74.35,73.26
74.32,74.74,75.02,73.77
74.81,74.32,74.99,74.01
74.54,72.04,74.57,71.58
72.04,73.68,73.70,72.00
73.12,72.87,73.36,72.12
72.66,72.36,72.76,71.94
72.52,72.05,72.89,70.78
72.31,72.74,74.08,72.31
73.78,76.04,76.46,73.78
75.38,76.52,76.60,75.12
76.47,77.09,77.52,76.08
77.05,76.61,77.46,75.65
80.16,78.11,80.74,77.64
78.93,79.29,80.12,78.16
79.33,79.42,79.98,79.00
79.08,79.38,80.22,78.73
79.50,79.12,79.58,78.38
79.06,78.20,79.45,78.06
77.77,78.30,78.89,77.14
77.76,77.74,78.44,77.16
77.76,76.34,78.06,76.27
76.35,77.31,77.94,76.08
77.18,75.92,77.18,75.70
76.36,77.20,77.68,76.22
77.20,78.31,78.40,76.77
78.63,78.56,79.80,78.42
78.08,78.14,79.28,78.00
78.47,79.73,80.66,78.42
79.36,78.54,79.65,78.34
78.75,78.52,79.16,78.14
79.73,79.22,80.25,78.52
78.74,80.26,80.50,78.74
80.61,80.72,81.31,80.48
81.28,80.86,82.16,80.29
81.55,81.82,82.00,81.08
81.75,81.75,82.36,80.46
81.72,83.58,83.68,81.42
83.77,84.00,84.38,83.50
83.88,83.22,84.07,83.05
83.77,82.90,84.00,82.54
83.26,83.88,84.18,82.89
83.63,85.90,86.18,83.60
86.05,85.36,86.40,84.68
85.25,84.44,85.76,84.26
84.28,84.43,84.86,84.06
84.70,86.04,86.96,84.31
86.04,85.69,86.64,85.36
85.86,86.04,86.08,84.91
85.62,85.36,85.83,84.90
83.78,84.64,85.17,83.56
84.30,86.08,86.42,84.28
85.94,86.18,86.18,84.59
85.98,85.90,86.12,85.00
85.96,87.30,87.43,85.27
86.10,86.42,87.10,85.63
86.17,85.73,87.32,85.20
86.16,85.76,86.78,84.80
86.70,87.43,87.47,86.47
87.16,89.50,90.48,87.12
88.68,90.53,90.54,88.16
90.12,89.98,90.99,89.50
91.24,91.14,92.94,90.74
90.84,90.70,91.20,89.65
91.33,91.90,92.08,90.42
91.50,92.16,92.75,91.32
93.40,92.58,94.15,91.79
91.56,89.22,91.56,88.26
89.03,90.72,91.28,88.06
91.18,91.72,92.04,90.64
91.92,91.21,91.95,90.94
91.44,92.54,92.88,91.16
93.16,90.16,93.42,89.44
89.99,89.20,90.46,88.36
89.30,89.49,90.02,87.70
90.24,91.73,91.80,89.86
91.67,89.86,91.67,89.76
90.66,88.32,91.45,87.97
89.66,85.79,90.12,82.53
85.56,85.48,86.63,85.28
85.60,85.72,85.82,84.82
85.35,83.55,85.54,82.90
83.22,84.73,84.93,82.89
84.74,84.84,85.04,83.98
85.14,85.69,86.07,83.94
85.75,84.26,86.10,83.74
84.06,83.94,84.74,82.83
84.42,83.46,84.88,83.11
84.06,84.66,84.98,83.90
85.10,85.08,85.20,83.68
84.66,84.60,84.68,82.84
84.68,84.60,85.74,83.85
84.46,83.22,84.84,82.76
83.25,82.50,83.56,82.09
83.00,82.50,83.28,81.56
82.22,82.74,83.36,80.91
82.80,83.56,84.56,82.75
82.67,82.69,83.87,82.08
83.48,80.02,83.55,79.94
80.46,79.07,80.62,78.16
79.28,79.66,80.97,79.07
79.32,78.13,79.57,78.00
78.36,79.18,79.66,78.12
78.84,79.51,79.68,78.24
79.67,79.87,80.98,79.67
79.98,79.82,80.26,78.76
79.82,81.00,81.19,79.16
80.84,82.66,82.96,80.59
82.88,84.26,84.66,82.72
84.63,83.81,84.92,83.42
83.91,84.13,84.14,83.12
84.23,84.01,84.77,83.84
84.07,84.58,84.74,83.84
84.48,83.68,85.25,83.10
83.67,83.92,84.42,83.24
83.28,82.51,83.98,82.03
82.88,82.28,83.32,81.91
82.38,82.01,82.66,81.17
82.54,83.42,83.46,81.85
83.01,83.39,83.92,82.52
83.70,83.50,84.44,82.74
83.73,83.40,84.05,83.00
83.70,81.73,84.14,81.48
82.03,84.30,84.36,81.82
84.73,85.18,86.64,84.70
85.05,85.05,85.58,84.35
85.48,84.48,85.94,84.46
84.58,84.62,85.28,84.07
85.10,85.86,86.15,84.62
84.89,84.58,85.87,84.12
84.02,82.76,84.52,82.56
82.58,81.05,82.74,80.63
81.69,83.61,83.75,81.14
82.96,82.32,83.08,81.77
82.55,83.06,83.75,82.32
82.34,82.62,83.80,81.59
82.30,80.87,83.43,80.75
81.34,84.29,84.50,81.25
84.05,83.74,84.85,83.38
83.84,86.62,86.90,83.84
87.38,88.25,88.44,86.57
88.38,87.10,88.38,86.54
87.15,87.36,88.10,86.78
87.88,87.56,88.45,87.24
86.79,87.74,88.38,86.30
87.86,88.48,88.62,87.44
89.06,89.96,90.13,89.00
89.52,89.43,90.80,89.20
89.52,90.02,91.03,89.08
90.24,89.00,90.48,88.97
89.22,90.20,90.81,88.52
91.42,92.00,92.56,89.62
91.80,93.22,94.20,91.44
93.20,93.74,93.82,92.24
93.86,94.71,95.54,93.56
94.52,94.64,96.00,94.31
95.24,95.78,96.46,95.16
96.02,95.24,96.61,95.02
95.36,95.53,96.10,94.66
95.76,94.96,95.98,94.10
94.96,94.52,94.96,93.56
94.92,92.80,95.08,92.66
91.80,92.56,93.22,90.83
93.12,91.46,93.32,90.88
91.48,92.98,93.10,91.45
93.30,93.62,94.00,93.00
93.70,94.58,95.26,93.59
94.68,93.76,94.72,93.02
93.81,95.16,95.28,93.04
95.96,95.82,96.58,94.69
96.12,94.80,96.48,94.23
95.59,95.78,96.48,95.45
96.28,96.06,97.66,95.95
96.14,96.73,97.70,96.01
97.24,98.58,99.41,97.06
99.24,98.08,99.75,97.52
99.38,98.98,100.36,98.26
98.27,99.11,99.45,98.02
99.33,100.65,101.50,99.26
102.67,99.77,103.30,98.95
99.72,97.93,99.98,97.45
97.78,98.71,99.58,97.54
98.94,98.95,99.17,97.99
98.63,98.11,99.99,97.56
97.67,98.63,99.44,97.57
99.52,99.96,100.10,98.72
99.63,101.11,101.68,99.52
101.48,101.01,102.20,100.43
100.84,102.45,102.84,100.84
102.98,103.53,103.58,101.84
103.27,102.34,103.27,102.11
102.53,105.08,105.18,102.53
105.50,103.48,105.50,103.42
103.25,99.04,103.30,98.52
99.94,98.06,100.00,96.53
98.88,99.62,101.23,98.83
99.07,98.00,99.20,97.01
98.33,97.12,98.77,96.81
97.30,97.06,98.25,96.82
96.04,99.25,99.71,96.01
102.80,103.63,106.50,101.84
104.61,104.79,105.45,102.64
104.03,101.73,104.56,101.62
102.00,102.28,102.30,100.64
102.57,103.64,103.73,101.98
104.58,105.17,105.50,104.07
105.39,103.90,105.49,103.86
103.97,102.74,103.98,101.55
102.57,102.50,102.88,101.34
102.50,102.30,103.36,101.96
102.22,101.89,102.95,101.47
102.70,104.16,104.36,102.13
104.29,103.68,105.17,103.53
103.89,103.97,105.15,103.44
104.44,104.73,104.97,103.75
104.86,105.19,105.63,104.40
105.42,106.67,106.71,105.00
106.27,105.80,106.36,105.25
105.95,105.38,106.00,104.95
105.45,106.66,106.66,105.27
106.48,106.37,106.73,105.56
106.35,107.90,107.91,105.82
108.14,109.32,109.56,108.04
110.09,109.51,110.75,109.00
109.39,108.69,109.75,108.41
108.25,110.70,110.91,108.14
111.46,111.63,113.02,111.22
111.77,114.02,114.06,110.53
115.21,114.03,115.21,113.02
113.95,112.39,113.95,111.26
112.58,113.54,113.84,111.74
113.14,115.80,115.85,112.52
117.05,117.98,118.39,116.15
118.52,117.41,118.89,116.95
117.18,113.02,117.45,112.24
113.32,116.02,116.25,113.32
115.68,115.42,115.82,114.07
115.23,115.84,115.93,114.71
116.08,116.86,117.19,115.85
117.44,116.55,117.94,116.02
116.86,116.23,117.59,115.54
116.27,116.75,117.02,115.11
116.40,115.73,116.50,115.42
115.37,115.98,116.55,115.13
116.10,116.56,116.63,115.19
114.88,114.96,115.88,113.76
115.74,113.65,115.74,113.39
114.65,115.69,116.05,114.31
114.91,113.44,115.62,112.64
114.62,117.10,117.28,114.17
117.48,115.55,118.81,115.35
115.36,116.04,116.39,114.34
115.86,116.15,116.42,115.12
116.75,116.55,117.62,115.80
116.70,115.95,116.70,115.30
116.48,116.20,116.93,115.70
115.58,114.82,115.86,114.40
114.82,113.39,115.02,113.00
113.27,114.24,115.33,113.19
114.83,113.63,115.44,113.36
112.84,109.44,113.09,109.37
108.65,108.04,109.81,107.16
108.74,111.81,112.12,108.08
111.81,108.63,111.81,107.51
107.03,106.64,108.51,105.63
107.63,106.06,107.63,105.40
106.07,107.78,107.90,106.07
108.72,108.30,109.00,107.92
107.89,106.69,108.49,106.34
107.66,106.35,107.88,106.22
107.22,103.93,107.23,103.57
103.97,106.09,106.42,103.67
106.65,105.43,106.91,104.66
106.10,107.03,107.35,105.66
107.09,107.28,107.45,106.10
107.50,107.19,107.52,106.02
106.59,106.27,106.84,105.61
106.93,107.94,108.25,106.60
108.86,109.40,110.47,108.50
109.43,108.61,109.45,108.07
108.32,108.39,109.08,108.10
108.80,109.88,109.98,108.37
109.57,107.71,109.85,107.08
108.85,107.74,109.08,107.46
107.76,104.61,107.99,103.97
104.35,105.18,105.29,103.05
104.07,101.41,104.07,100.75
101.63,101.31,102.49,100.82
100.93,102.01,102.14,99.33
100.93,103.06,103.13,100.50
102.50,101.32,102.57,101.03
100.80,101.91,102.41,100.12
102.33,105.22,105.90,101.75
105.65,105.19,106.09,104.52
105.82,104.98,105.99,104.21
105.24,104.37,105.90,103.96
103.82,101.74,103.86,100.57
101.55,100.84,101.63,100.45
100.94,102.14,102.87,99.55
102.64,100.36,102.70,100.14
100.37,101.88,102.41,100.21
100.80,101.87,102.06,100.10
101.85,99.02,101.85,97.45
99.21,96.85,99.73,96.15
95.76,97.06,97.64,94.27
97.71,96.57,97.72,95.57
96.84,95.09,97.00,94.36
95.02,93.61,96.02,93.57
93.31,94.56,94.69,90.80
93.64,91.96,93.73,90.88
91.07,89.83,91.95,88.61
89.25,83.76,90.30,83.58
85.40,83.84,86.88,83.50
82.03,88.17,88.53,81.07
85.19,91.27,92.52,85.19
94.20,91.22,95.55,90.26
91.63,92.76,93.13,90.77
94.35,96.03,96.15,94.27
96.76,92.07,97.00,91.98
94.24,93.40,94.84,92.40
92.95,92.10,93.02,90.20
90.28,88.43,90.28,86.95
88.81,91.50,91.91,87.55
94.24,93.13,95.32,91.76
92.57,92.22,93.29,91.03
91.95,95.05,95.10,90.74
95.05,93.32,96.81,92.89
89.67,90.28,90.99,89.00
95.50,96.10,97.47,93.56
95.19,98.97,99.18,95.11
99.72,99.55,101.58,99.27
101.01,98.50,102.25,97.99
98.50,98.75,99.07,97.11
98.68,97.56,99.35,97.35
96.50,95.85,97.44,94.47
96.32,98.16,98.36,96.20
97.01,96.35,97.38,95.73
96.32,97.67,98.26,96.09
98.75,98.33,98.80,96.78
98.45,99.44,100.29,98.34
102.49,101.74,103.04,101.29
101.18,99.56,101.74,99.25
100.28,96.74,100.32,96.72
96.62,94.07,96.63,93.86
87.16,86.72,88.43,85.19
85.52,87.24,87.58,83.66
87.38,90.30,91.33,86.87
91.71,91.80,93.60,90.80
90.79,93.00,93.00,89.75
91.91,90.75,92.05,89.78
89.08,88.19,89.50,87.51
87.00,89.15,91.12,86.77
86.38,86.79,87.26,85.54
87.19,86.86,89.76,86.13
85.31,86.37,88.42,85.10
87.09,85.34,88.16,84.94
83.86,85.47,89.39,83.78
87.61,91.14,92.21,86.11
93.83,92.45,94.39,88.90
93.63,95.02,95.09,92.45
94.21,95.06,95.62,93.68
95.74,96.41,97.27,94.54
95.61,94.05,95.64,92.51
94.90,93.82,95.20,93.33
94.55,94.33,95.21,93.45
93.50,92.70,94.33,91.89
91.97,92.07,93.55,90.75
91.01,92.24,92.99,90.36
89.96,86.68,90.78,86.02
85.84,84.21,86.60,82.76
85.18,83.68,85.73,82.72
84.72,86.88,87.65,84.07
87.02,87.46,88.03,86.01
85.11,84.51,85.35,83.20
84.97,85.06,86.66,84.05
84.07,87.74,88.09,83.67
89.04,86.53,89.50,86.45
86.86,90.31,90.54,86.54
89.09,89.33,89.78,87.52
90.59,90.54,91.40,89.68
91.38,90.36,91.38,88.58
90.07,90.79,92.52,89.70
91.23,92.33,92.39,90.15
91.94,93.00,94.41,91.12
92.33,88.10,92.69,87.76
89.12,88.91,89.41,86.76
88.16,89.03,90.07,87.40
90.99,92.52,92.57,89.53
94.72,96.31,97.88,94.65
94.40,95.19,97.53,93.54
95.71,96.19,97.28,95.16
96.99,95.79,97.21,95.57
96.60,95.95,97.23,95.78
96.65,95.26,96.69,93.84
93.84,93.20,94.09,92.15
94.96,94.80,95.24,93.47
95.94,96.92,96.97,95.25
96.08,96.49,96.67,95.65
94.81,95.31,96.49,94.50
86.68,93.80,94.74,86.58
93.09,91.08,93.46,90.07
90.06,91.93,92.10,89.25
92.85,91.61,93.00,91.26
91.54,93.03,93.25,91.29
91.81,90.13,92.25,89.61
90.63,89.72,90.71,89.29
89.08,89.06,89.20,87.08
88.98,90.37,91.11,88.60
90.20,90.49,90.95,88.55
89.85,89.59,90.52,89.37
88.92,88.57,90.00,88.23
88.08,87.72,89.25,87.64
86.88,86.19,88.57,86.15
86.42,86.55,87.37,85.88
87.05,85.71,87.19,85.62
85.20,85.39,85.66,84.10
85.11,87.90,88.03,85.06
86.86,86.80,87.97,86.40
86.08,90.66,91.37,86.00
89.40,89.53,89.90,88.36
89.75,90.68,91.94,89.43
91.25,89.00,91.41,89.00
89.20,88.84,89.94,88.64
89.68,89.96,90.64,88.79
91.49,91.36,91.93,90.25
90.62,90.56,91.12,90.14
91.64,92.14,92.50,90.78
91.13,91.69,92.47,90.83
92.04,91.22,93.35,91.06
90.30,92.71,92.97,89.23
93.36,94.87,95.40,93.30
95.20,94.27,95.99,94.12
95.01,94.04,95.58,93.80
94.11,95.71,96.07,94.11
95.87,96.59,96.60,95.25
96.75,94.69,96.90,94.20
95.66,96.46,96.95,95.34
96.76,97.96,98.34,96.43
97.83,98.00,98.95,97.17
97.04,97.23,97.47,96.39
97.18,97.74,99.01,97.18
97.83,96.59,98.32,96.36
96.94,97.70,98.60,96.30
97.98,98.27,99.25,97.84
97.90,96.72,97.97,95.91
97.55,97.36,97.96,96.56
97.64,98.46,98.81,97.64
98.22,99.74,99.98,97.79
100.00,98.95,100.44,98.48
99.21,98.90,101.00,97.61
99.11,99.39,101.36,98.55
98.70,94.54,100.20,94.53
96.21,95.08,96.86,94.49
96.10,93.50,96.10,92.42
94.48,93.50,94.50,92.56
94.05,91.61,94.24,91.46
91.76,93.41,93.59,91.71
94.04,91.60,94.07,90.98
91.99,90.73,92.08,90.68
90.32,90.47,91.24,89.25
90.56,91.80,92.04,89.90
91.48,90.26,91.61,90.24
90.60,90.46,90.72,89.76
91.17,91.49,91.83,90.68
90.40,90.26,91.39,90.07
89.25,89.15,89.81,88.55
89.13,89.00,89.94,88.51
88.55,89.15,89.36,88.00
89.42,88.69,89.52,88.26
89.02,88.76,89.12,88.18
89.02,89.77,90.35,88.21
89.55,89.01,90.47,88.97
88.23,87.38,89.13,87.28
87.00,89.68,90.64,86.82
89.37,89.11,89.96,88.63
90.02,89.09,91.48,89.09
90.39,90.41,90.71,89.66
91.00,90.65,91.05,90.23
90.16,89.53,90.43,89.12
88.51,89.22,89.86,88.50
89.07,90.08,90.36,89.03
90.68,89.02,91.15,88.42
89.76,88.81,90.13,88.54
88.29,88.27,89.12,88.24
88.60,88.08,88.67,87.45
88.28,88.79,88.82,87.66
88.54,88.34,89.07,88.10
88.17,87.65,88.27,87.30
87.60,88.06,88.70,87.08
86.99,86.25,87.94,86.15
86.99,87.55,87.90,86.34
87.85,85.77,87.85,84.84
85.95,85.67,86.70,85.58
84.49,85.09,86.18,84.05
85.78,86.72,87.10,83.83
86.10,84.49,86.92,84.00
85.99,85.30,87.35,85.18
85.98,84.54,86.76,84.45
84.53,84.21,84.79,83.47
84.20,85.23,85.64,84.10
84.62,83.25,85.23,83.05
83.74,82.40,83.80,82.34
81.97,80.50,82.15,80.26
80.24,77.93,80.25,77.92
78.09,77.33,78.38,76.94
77.18,76.09,77.49,75.76
76.20,76.32,76.82,75.47
76.10,75.16,76.58,74.62
74.10,73.19,74.73,72.86
73.40,76.85,77.56,73.40
76.50,77.74,79.01,76.50
77.65,78.54,78.72,76.80
78.00,77.19,78.31,77.00
76.20,76.44,77.63,75.45
77.08,76.74,77.77,76.35
78.06,76.09,78.95,75.96
75.65,77.68,78.34,75.30
75.25,73.76,78.70,73.03
73.67,76.27,76.48,73.62
75.13,77.30,77.43,74.18
77.32,79.93,80.26,76.50
79.30,79.68,80.50,78.34
79.50,79.93,80.88,78.80
79.50,80.01,80.16,78.89
79.71,80.41,80.54,79.28
79.87,77.07,79.88,76.07
77.02,76.73,78.44,76.61
76.39,74.86,77.43,74.12
70.00,69.26,73.28,68.15
72.10,68.36,72.11,68.29
70.21,70.99,71.04,68.40
72.99,75.79,76.10,72.86
75.50,77.31,79.34,75.41
76.20,78.31,79.16,74.57
76.02,76.02,77.32,75.18
77.06,77.71,77.71,74.87
78.25,77.45,80.16,76.79
76.22,76.89,77.44,75.95
77.58,77.66,78.18,75.45
78.74,76.93,79.35,76.67
77.57,78.06,78.24,76.13
76.75,77.15,77.41,75.84
77.15,76.43,77.15,76.04
77.04,77.25,77.80,76.56
77.68,79.94,80.17,77.46
80.02,79.66,81.18,79.12
78.86,76.26,79.19,75.93
77.05,76.52,77.33,75.87
75.43,75.22,76.66,74.69
75.24,73.04,75.92,72.87
72.29,73.26,73.72,71.48
74.06,72.79,74.21,72.19
71.74,69.43,72.19,69.10
69.86,70.13,70.67,69.14
70.85,72.80,72.94,70.67
73.80,73.59,75.68,73.00
72.67,77.06,77.45,71.59
78.16,80.65,81.70,78.00
80.72,82.84,83.73,80.55
84.37,83.77,85.40,82.18
83.31,87.04,87.27,83.07
87.35,87.30,88.30,86.10
87.12,86.03,88.00,84.93
85.13,85.28,86.29,84.75
84.99,85.78,86.14,84.76
85.30,87.14,87.16,84.93
87.75,87.50,88.00,86.56
86.27,84.81,86.47,84.11
84.57,84.87,85.65,83.95
84.44,83.78,84.70,83.41
84.63,85.80,86.17,84.37
85.09,85.43,86.09,84.32
85.10,83.39,85.29,83.25
81.84,82.70,82.95,80.05
82.98,84.79,86.17,82.35
84.32,85.52,85.90,84.13
85.78,85.85,86.68,84.37
85.14,86.07,86.50,84.71
86.90,88.45,89.52,86.28
88.48,86.47,88.96,85.75
86.28,86.47,88.22,85.45
85.41,85.27,88.49,84.23
85.94,85.37,87.18,84.49
85.22,86.58,86.88,84.72
86.35,83.32,87.90,83.19
82.34,81.69,82.75,80.93
81.65,82.25,82.95,80.50
82.44,84.79,84.86,82.00
84.29,82.98,84.31,81.93
83.84,85.15,85.26,82.95
84.26,82.65,84.64,81.74
83.00,82.63,83.27,81.98
82.36,82.57,83.38,82.06
83.30,85.14,85.65,83.16
84.24,83.53,84.63,83.20
82.88,82.02,83.27,81.90
82.41,83.43,84.64,82.20
83.45,84.05,84.13,83.02
83.33,80.86,84.06,80.41
81.64,80.99,82.48,80.25
79.29,80.49,80.84,78.50
77.88,76.19,78.40,74.55
74.72,77.11,77.88,73.93
77.47,78.38,80.40,76.88
77.84,78.18,80.15,77.40
77.32,74.89,79.43,74.76
74.36,76.86,77.03,73.72
77.97,77.30,78.66,76.98
77.29,75.80,77.62,75.72
75.47,73.30,75.98,71.93
73.19,71.43,73.87,71.41
71.60,70.25,71.85,69.30
70.33,69.81,71.58,69.58
71.40,73.69,73.76,70.79
73.75,73.42,73.98,72.65
71.76,70.49,71.98,70.20
71.88,71.09,72.33,70.55
69.80,70.61,71.09,69.74
70.11,70.79,71.59,70.00
70.80,69.68,71.00,68.83
70.06,70.13,70.54,68.57
68.50,67.32,68.50,66.70
65.92,65.46,69.01,65.19
65.86,65.52,66.43,64.77
65.88,63.67,66.06,62.92
64.65,62.92,65.18,61.35
63.42,64.17,64.66,62.59
64.67,65.26,66.61,63.61
62.01,62.97,64.02,61.01
63.15,60.98,63.63,59.48
59.73,60.24,60.88,57.15
60.24,63.75,64.25,59.41
66.44,66.02,67.49,64.67
64.62,61.59,66.15,61.51
63.00,66.03,66.13,62.29
65.09,66.07,67.93,64.49
69.23,68.63,69.79,66.65
69.17,71.02,71.18,69.02
69.30,69.09,70.00,67.69
67.01,67.16,69.37,66.00
68.61,70.19,70.27,66.32
70.67,68.44,71.39,68.14
67.68,67.06,67.68,65.62
65.66,68.43,68.80,64.75
67.21,65.59,67.97,64.34
65.45,65.79,66.78,63.91
63.62,65.56,65.99,63.06
66.82,67.70,68.76,65.98
68.77,67.89,69.09,66.25
69.00,70.82,70.94,67.60
70.99,69.46,71.23,69.34
68.61,69.71,69.73,68.06
71.54,72.21,72.77,70.62
71.69,68.02,71.75,67.65
67.23,69.52,69.94,66.75
69.19,68.50,70.30,67.17
68.00,67.50,69.70,65.74
67.42,64.74,67.56,64.72
65.10,65.02,65.47,62.53
64.95,67.00,67.12,64.14
66.95,69.25,69.67,66.18
69.91,71.41,71.52,68.74
71.12,75.47,75.53,70.22
74.65,70.56,74.84,70.48
71.59,72.26,72.50,69.81
71.16,72.27,72.86,70.30
73.14,75.18,75.89,72.99
73.71,74.78,75.45,73.29
73.82,73.61,74.37,71.90
74.37,75.04,75.27,72.68
75.66,76.50,77.45,75.18
77.50,75.63,77.70,74.63
75.02,75.96,76.32,74.59
75.39,75.90,77.25,75.38
75.45,74.34,76.54,73.84
72.42,74.30,74.91,72.32
74.30,74.53,74.76,73.52
73.17,75.45,75.64,73.14
76.44,73.66,76.50,73.59
73.48,72.58,74.42,72.37
70.85,72.04,72.47,70.41
72.48,70.31,72.63,70.11
69.89,70.54,71.36,69.66
70.68,71.22,71.71,69.76
70.79,71.45,72.08,70.39
73.37,73.47,73.50,72.44
73.88,74.01,74.78,73.70
74.46,77.51,77.83,73.54
77.61,77.78,78.18,76.32
78.03,77.81,78.63,77.00
77.42,75.71,77.42,75.07
74.04,77.44,77.68,73.57
78.52,79.13,80.18,77.70
78.13,79.37,80.06,76.64
79.38,79.16,80.29,78.71
79.67,80.92,81.78,79.50
80.39,79.76,80.52,79.04
80.52,82.78,82.86,79.98
83.69,84.51,85.43,83.04
83.85,81.89,84.75,81.60
82.71,82.62,83.24,81.03
82.33,82.78,83.06,80.68
81.44,80.63,82.23,80.05
80.61,79.34,82.00,78.81
80.44,81.26,82.75,80.15
78.83,78.68,81.65,78.08
78.21,78.64,78.83,77.04
78.77,79.73,79.85,78.71
79.38,80.32,81.21,78.22
81.39,80.50,81.85,79.55
80.21,78.65,80.97,78.60
79.64,80.69,81.41,79.64
80.80,81.57,82.48,80.39
81.36,80.41,82.15,79.88
79.15,80.08,80.19,77.66
80.59,80.92,81.31,79.54
79.80,81.27,81.87,79.73
81.79,82.49,83.08,80.65
82.50,83.08,83.38,82.29
83.55,82.30,83.94,82.21
81.94,81.57,82.26,80.77
82.03,81.36,82.48,81.08
80.65,80.75,81.30,80.00
79.96,80.49,80.58,79.20
80.24,79.71,80.80,79.11
80.61,81.27,81.42,79.97
81.99,85.42,85.63,81.91
86.60,85.36,86.87,85.14
84.17,84.58,85.44,84.00
83.32,81.56,84.34,81.33
80.99,81.39,83.10,80.51
81.22,82.98,83.05,81.07
82.73,82.44,83.54,81.50
81.25,80.18,81.34,79.33
80.95,80.89,81.55,80.34
82.33,83.19,83.39,81.81
82.99,84.91,85.22,82.83
84.90,83.60,85.09,83.43
84.76,84.50,84.97,83.97
81.58,81.06,82.88,80.81
80.00,78.59,80.80,78.11
80.65,81.75,81.77,79.85
82.80,83.44,84.01,82.41
83.44,83.42,83.96,82.64
83.78,84.78,85.73,83.37
83.12,82.76,84.03,81.67
82.03,82.76,83.11,81.86
83.83,81.61,83.86,81.12
82.84,82.54,83.07,81.57
82.94,82.90,83.89,82.60
84.55,85.14,85.96,84.14
84.59,83.84,85.07,82.62
84.84,84.63,84.93,83.88
84.51,84.10,84.90,83.64
83.92,83.25,84.31,82.74
82.87,82.04,83.15,81.86
81.53,82.11,82.86,80.92
82.15,81.49,83.46,81.20
82.05,80.98,82.20,80.19
80.38,78.75,80.56,78.19
78.47,80.45,80.45,78.04
80.76,79.78,81.95,79.64
79.74,79.90,80.71,79.25
79.00,81.70,81.89,78.86
81.04,78.70,81.13,78.26
79.37,79.89,80.36,78.52
80.00,82.37,82.42,79.67
82.03,84.24,84.30,81.60
87.23,90.16,90.77,86.75
90.97,90.66,92.00,90.47
91.29,90.38,91.39,89.90
90.87,89.42,90.87,89.20
90.07,90.28,91.15,89.08
90.65,91.20,91.42,90.00
91.51,90.55,91.97,90.54
90.19,90.26,90.80,88.84
89.81,90.22,90.66,89.30
90.82,91.73,92.10,90.29
91.17,91.76,91.94,90.66
90.83,91.17,91.84,90.27
90.73,91.21,91.85,90.71
90.77,90.73,91.40,90.56
90.70,90.25,90.85,90.00
90.73,90.18,91.51,89.92
89.98,91.14,91.33,89.61
91.27,90.07,91.69,89.64
89.76,88.49,89.90,88.02
88.31,88.55,88.64,87.44
89.27,88.91,89.50,88.68
90.25,94.83,95.20,90.06
94.78,94.32,95.16,94.04
95.18,95.43,95.93,94.16
94.36,92.65,94.87,92.62
92.05,92.98,93.53,91.35
91.61,90.40,92.13,89.53
89.88,88.45,90.82,88.17
88.85,90.95,92.39,88.49
89.54,90.97,91.46,89.27
91.66,90.05,91.87,90.02
90.16,90.40,91.85,90.04
91.56,93.52,93.79,91.10
94.61,92.61,95.00,92.43
92.25,89.75,92.36,89.40
90.22,89.26,90.63,89.01
88.15,88.56,89.00,87.18
89.46,93.96,94.58,88.57
94.28,95.05,95.94,93.14
95.55,96.71,97.20,94.69
96.27,96.11,96.71,95.06
96.32,95.14,96.37,94.51
96.37,97.38,98.32,96.09
97.55,97.14,98.06,96.39
96.88,96.44,97.33,96.05
97.28,97.29,98.10,97.13
96.75,96.05,97.07,95.72
95.88,96.30,96.76,95.15
95.43,95.50,95.93,93.99
96.27,94.48,96.27,93.91
94.46,93.78,94.95,93.05
94.96,93.13,95.16,92.94
94.26,95.06,96.18,94.00
93.97,94.91,95.50,93.77
94.19,93.88,95.02,93.64
93.98,93.62,94.67,92.28
93.48,92.67,94.19,92.57
91.85,92.14,93.10,90.38
92.51,91.74,92.89,91.30
91.65,90.80,94.09,90.68
90.66,90.42,91.23,90.18
91.32,91.16,92.22,89.90
89.91,90.94,91.79,88.94
90.88,92.08,92.88,90.59
94.87,91.80,96.00,91.51
93.60,93.43,93.60,92.21
92.90,93.36,94.10,92.57
93.35,93.43,94.67,92.52
92.64,92.63,93.70,92.06
92.07,91.41,92.54,90.12
91.19,92.68,92.80,90.09
94.03,94.57,94.99,93.05
94.51,95.22,96.02,94.05
96.10,92.34,96.58,92.04
92.75,93.15,94.28,92.38
95.00,95.67,97.00,94.86
95.79,95.27,96.20,93.42
94.79,97.00,97.70,94.64
96.39,95.98,96.80,95.19
96.64,93.47,96.84,93.27
91.60,92.44,93.38,90.00
97.31,102.52,103.07,97.09
105.71,104.75,107.47,103.85
104.81,103.74,105.47,103.39
104.88,104.46,106.81,104.32
103.52,103.97,105.30,102.56
103.92,103.53,104.97,102.69
104.03,104.93,105.25,102.36
105.59,106.45,106.99,105.35
109.10,105.83,109.37,105.19
107.00,108.01,109.13,105.80
106.69,104.21,107.47,104.08
103.03,103.92,105.05,102.54
104.09,104.00,104.59,102.79
104.27,103.48,104.40,103.13
104.20,103.16,104.34,102.71
103.75,102.55,103.86,102.33
102.67,103.13,103.33,101.87
102.70,102.03,103.04,101.62
102.82,102.54,103.12,102.32
102.49,101.65,102.83,101.35
101.60,101.28,101.95,100.54
101.15,101.10,102.18,100.73
102.63,103.54,104.63,101.83
104.25,103.62,104.47,102.97
103.63,104.18,104.85,103.42
104.61,105.21,105.71,103.71
104.32,103.02,104.58,102.82
103.23,103.40,104.40,102.87
103.56,104.92,105.04,102.73
105.51,105.37,106.51,104.84
104.84,105.39,106.08,104.26
